-38
-23
-12
-6
-2
1
3
4
4
6
7
10
12
14
16
18
19
20
21
22
24
25
27
27
28
29
31
32
34
36
39
43
47
51
54
58
62
65
68
71
73
75
75
74
70
64
53
40
24
6
-14
-35
-55
-74
-92
-106
-117
-124
-128
-129
-128
-125
-120
-113
-106
-99
-92
-85
-78
-70
-63
-56
-50
-45
-39
-35
-31
-28
-26
-25
-24
-24
-23
-22
-20
-18
-16
-13
-11
-10
-9
-9
-9
-10
-10
-9
-9
-9
-10
-10
-9
-8
-7
-6
-5
-3
-2
-1
-1
0
0
0
0
0
0
0
0
1
1
0
-2
-4
-7
-9
-11
-12
-12
-12
-11
-11
-10
-9
-9
-9
-10
-9
-9
-8
-8
-8
-7
-7
-6
-5
-5
-5
-5
-6
-7
-8
-8
-8
-6
-5
-3
0
3
6
9
13
18
23
29
34
37
37
37
35
32
29
25
19
11
2
-9
-19
-29
-36
-42
-45
-46
-45
-43
-40
-37
-34
-31
-27
-24
-22
-20
-18
-17
-16
-13
-8
3
25
59
107
162
215
254
265
241
183
100
8
-78
-145
-186
-201
-194
-173
-143
-112
-82
-55
-34
-17
-4
4
10
14
16
17
17
16
15
14
14
14
15
15
16
16
16
17
18
19
21
23
25
27
30
33
36
39
43
46
49
52
56
60
64
68
71
73
75
76
75
73
69
61
51
37
20
1
-21
-43
-64
-83
-100
-113
-124
-131
-136
-138
-136
-133
-128
-121
-113
-105
-97
-89
-80
-72
-65
-58
-52
-47
-42
-38
-35
-33
-30
-28
-26
-25
-23
-22
-20
-18
-16
-13
-11
-9
-8
-7
-6
-6
-5
-5
-4
-4
-4
-4
-4
-4
-4
-3
-2
-2
-1
-1
-1
0
0
1
1
0
-1
-2
-4
-6
-7
-6
-5
-3
-1
0
0
0
0
0
-1
-1
-1
-2
-3
-4
-5
-7
-7
-7
-5
-3
-1
2
5
7
8
9
10
12
15
19
23
26
28
28
26
22
18
12
6
0
-7
-14
-22
-29
-36
-41
-44
-46
-45
-43
-40
-37
-34
-31
-28
-25
-21
-19
-17
-15
-13
-12
-10
-4
7
29
62
107
158
204
235
239
211
152
73
-14
-94
-155
-190
-201
-191
-167
-135
-101
-70
-42
-21
-5
6
14
18
20
22
23
23
24
25
25
25
25
24
24
24
24
23
23
22
23
23
25
27
29
31
34
37
40
43
47
51
56
61
66
70
74
76
77
77
76
74
70
64
55
42
27
8
-12
-34
-55
-76
-94
-110
-123
-132
-139
-142
-142
-139
-133
-125
-116
-106
-97
-88
-80
-72
-65
-59
-53
-49
-45
-43
-41
-39
-37
-36
-35
-33
-31
-29
-26
-24
-22
-21
-20
-17
-14
-11
-8
-6
-5
-3
0
3
5
7
8
8
8
7
6
5
4
2
1
0
-2
-4
-5
-6
-6
-6
-5
-5
-6
-7
-7
-8
-9
-10
-11
-11
-11
-10
-9
-7
-6
-5
-4
-4
-4
-4
-5
-5
-6
-6
-7
-7
-7
-7
-6
-6
-5
-3
-1
2
6
9
13
16
20
23
26
29
31
31
30
27
23
19
13
6
-1
-9
-18
-25
-32
-37
-40
-42
-43
-42
-41
-39
-37
-35
-33
-31
-29
-27
-24
-22
-19
-17
-15
-11
-5
10
36
76
128
185
234
262
258
218
148
60
-30
-106
-159
-186
-189
-175
-150
-121
-91
-64
-42
-24
-11
-3
3
6
8
10
11
13
14
14
14
15
15
16
17
18
19
20
21
23
25
27
29
31
32
34
36
38
40
43
46
49
52
56
59
62
65
67
70
71
71
69
66
60
53
42
29
12
-7
-27
-49
-69
-87
-102
-115
-123
-128
-130
-128
-125
-119
-113
-106
-99
-91
-82
-74
-66
-60
-54
-48
-44
-40
-37
-35
-33
-31
-28
-25
-23
-21
-21
-20
-20
-19
-18
-17
-15
-14
-12
-11
-10
-9
-8
-8
-7
-7
-6
-6
-5
-5
-4
-3
-2
-1
0
0
-1
-2
-3
-4
-5
-5
-5
-4
-4
-3
-3
-3
-2
-2
-2
-2
-3
-3
-4
-5
-5
-5
-5
-5
-6
-6
-6
-6
-5
-5
-5
-6
-7
-9
-11
-12
-12
-11
-9
-7
-4
0
3
4
6
7
8
10
14
17
21
24
27
28
28
26
24
20
13
5
-5
-15
-25
-33
-40
-44
-46
-46
-44
-41
-38
-35
-32
-29
-27
-24
-22
-20
-18
-17
-16
-15
-11
-1
18
51
98
155
210
252
266
245
189
109
17
-68
-135
-177
-193
-188
-169
-142
-113
-84
-60
-39
-23
-10
-1
6
11
14
16
16
16
16
15
14
13
13
13
14
15
16
18
20
22
25
27
30
32
34
37
40
43
47
51
56
60
63
66
68
70
70
71
72
72
72
70
66
59
49
36
20
2
-18
-38
-58
-76
-92
-104
-114
-120
-123
-123
-122
-118
-114
-108
-102
-95
-87
-80
-72
-65
-58
-51
-46
-40
-35
-30
-25
-21
-17
-15
-13
-12
-11
-10
-10
-9
-8
-8
-7
-6
-5
-5
-5
-5
-5
-5
-4
-4
-3
-2
-2
-2
-2
-1
-1
1
2
3
4
5
5
4
3
2
1
0
0
0
1
0
0
-1
-2
-3
-4
-4
-5
-6
-7
-8
-8
-8
-7
-6
-4
-4
-3
-3
-4
-4
-5
-6
-7
-9
-10
-11
-11
-10
-8
-6
-3
0
3
4
6
8
11
14
19
24
27
30
31
30
27
24
19
13
6
-3
-12
-21
-28
-34
-38
-39
-39
-38
-36
-34
-32
-30
-27
-24
-20
-18
-16
-14
-12
-11
-10
-7
-2
12
38
77
129
187
237
268
267
230
162
73
-18
-98
-155
-186
-193
-181
-156
-126
-95
-66
-43
-25
-12
-4
2
6
8
9
10
11
11
12
13
14
16
18
19
20
21
22
22
22
23
25
27
29
32
34
37
41
45
50
55
60
65
69
73
75
77
78
78
78
76
75
71
67
59
48
34
16
-3
-24
-45
-65
-84
-100
-113
-122
-128
-131
-130
-127
-122
-115
-106
-97
-88
-79
-71
-64
-58
-53
-49
-46
-42
-38
-34
-31
-28
-26
-24
-23
-22
-20
-18
-16
-13
-11
-9
-7
-6
-5
-5
-5
-6
-6
-6
-5
-4
-2
0
2
4
7
8
9
9
7
5
4
2
1
1
1
1
1
1
0
-1
-2
-4
-5
-5
-5
-5
-6
-6
-7
-7
-6
-5
-4
-3
-2
-1
-1
-1
-2
-2
-1
-1
-2
-2
-2
-3
-4
-4
-5
-5
-5
-4
-3
-2
-1
-1
-1
-1
-1
-1
1
3
6
10
14
19
23
27
31
33
34
34
32
29
24
19
11
2
-8
-18
-26
-33
-38
-41
-42
-43
-43
-42
-42
-41
-40
-38
-35
-32
-28
-25
-22
-19
-16
-11
-2
16
45
88
141
197
243
267
257
213
139
50
-39
-113
-163
-188
-191
-178
-155
-127
-99
-74
-53
-37
-25
-17
-11
-7
-4
-1
3
5
7
9
10
11
12
13
14
14
16
17
19
21
24
27
30
32
34
35
37
39
41
44
47
50
54
57
61
65
68
71
73
75
75
72
68
61
52
40
26
9
-10
-31
-51
-70
-87
-101
-112
-120
-124
-126
-125
-122
-117
-110
-104
-96
-89
-82
-75
-68
-62
-55
-50
-45
-41
-38
-35
-32
-29
-26
-23
-20
-18
-17
-15
-14
-12
-11
-10
-9
-7
-6
-5
-4
-4
-4
-4
-4
-4
-3
-1
-1
0
0
0
0
1
1
1
1
1
1
0
-1
-3
-4
-5
-6
-6
-7
-7
-7
-7
-7
-7
-7
-7
-8
-9
-10
-10
-10
-9
-7
-6
-5
-5
-5
-4
-4
-3
-3
-3
-2
-2
-2
-2
-2
-2
-2
-2
-2
-1
0
2
4
7
10
12
16
19
22
25
29
31
32
32
30
28
25
22
18
13
6
-2
-12
-22
-31
-38
-43
-46
-46
-45
-43
-40
-37
-34
-31
-27
-24
-20
-17
-13
-11
-9
-7
-3
5
21
49
92
144
200
246
270
261
217
143
53
-38
-113
-165
-190
-192
-178
-152
-123
-93
-65
-43
-25
-11
-2
5
8
10
10
10
10
10
11
12
13
13
14
15
17
18
20
22
23
24
25
26
27
28
30
33
36
40
45
49
53
57
61
64
67
69
71
73
74
74
72
69
62
53
41
27
10
-8
-27
-47
-67
-86
-103
-117
-127
-134
-137
-137
-133
-128
-121
-112
-104
-96
-87
-80
-72
-65
-58
-53
-48
-43
-39
-34
-31
-27
-25
-24
-24
-23
-23
-22
-20
-18
-16
-14
-12
-10
-8
-5
-4
-2
-1
0
0
-1
-2
-4
-5
-7
-8
-9
-8
-8
-8
-7
-7
-6
-6
-5
-3
-2
-1
-1
-1
-1
-1
-2
-4
-5
-6
-7
-6
-5
-3
-2
0
1
1
1
1
0
0
-1
-1
-2
-3
-3
-3
-3
-3
-3
-2
-1
2
5
8
11
14
17
20
23
27
30
32
32
30
26
22
17
11
6
1
-5
-10
-16
-22
-26
-31
-33
-35
-36
-36
-35
-33
-31
-28
-25
-22
-19
-17
-15
-13
-12
-9
-5
4
21
48
86
135
184
224
241
227
181
109
23
-61
-131
-178
-199
-197
-178
-148
-114
-81
-52
-28
-10
4
13
19
23
24
24
23
21
20
19
18
19
19
21
23
24
26
26
26
26
27
27
29
31
33
36
38
41
43
47
50
53
57
60
64
68
72
76
79
80
79
75
69
61
51
39
24
6
-14
-37
-59
-79
-97
-111
-122
-130
-136
-138
-138
-135
-130
-123
-114
-106
-96
-87
-79
-72
-65
-60
-54
-49
-45
-40
-35
-31
-27
-25
-23
-21
-20
-18
-17
-16
-15
-13
-11
-9
-7
-5
-3
-2
-2
-2
-2
-1
0
1
0
-1
-2
-3
-3
-3
-3
-3
-2
-2
-2
-3
-5
-7
-9
-11
-12
-11
-11
-10
-9
-9
-9
-10
-10
-11
-10
-9
-8
-7
-6
-6
-5
-5
-4
-4
-3
-3
-2
-2
-2
-1
-1
0
2
3
6
9
13
19
24
29
32
33
31
28
24
19
13
6
-1
-9
-17
-25
-32
-38
-42
-43
-43
-42
-39
-35
-31
-27
-24
-22
-20
-18
-16
-15
-13
-12
-9
-5
4
20
48
88
139
193
238
262
255
213
142
55
-34
-109
-162
-188
-191
-177
-153
-124
-95
-68
-45
-26
-12
-2
5
8
10
9
9
8
8
9
10
11
13
16
19
22
25
27
29
31
32
33
34
36
37
38
39
41
44
47
51
54
58
62
65
69
72
74
76
77
76
74
70
63
54
42
27
10
-9
-29
-50
-69
-87
-102
-113
-122
-127
-128
-127
-123
-116
-109
-101
-92
-83
-75
-67
-60
-54
-49
-44
-41
-38
-35
-31
-28
-25
-22
-19
-17
-15
-14
-13
-12
-12
-12
-12
-12
-11
-11
-9
-8
-6
-5
-4
-3
-3
-2
-2
-1
0
2
3
3
4
4
5
5
5
5
4
3
2
0
-2
-3
-4
-5
-6
-6
-6
-6
-5
-5
-4
-4
-4
-4
-3
-4
-4
-4
-5
-5
-5
-4
-3
-3
-3
-4
-4
-4
-2
1
4
8
11
15
19
22
24
26
27
27
26
25
22
19
14
10
4
-3
-9
-16
-23
-30
-35
-39
-41
-42
-42
-41
-38
-35
-31
-27
-23
-19
-17
-15
-13
-11
-7
-1
10
30
59
98
142
184
211
216
191
138
66
-13
-85
-141
-174
-183
-173
-149
-117
-83
-52
-25
-5
10
20
26
29
31
31
31
30
30
29
28
27
26
24
23
23
23
25
26
28
29
30
31
31
31
33
34
37
40
44
48
52
57
61
65
67
69
71
72
72
72
71
68
62
54
42
28
11
-8
-28
-49
-69
-87
-102
-113
-122
-127
-129
-129
-127
-123
-117
-109
-101
-92
-82
-74
-66
-60
-54
-50
-46
-41
-37
-32
-28
-25
-22
-20
-18
-15
-13
-11
-9
-8
-7
-6
-5
-4
-2
-1
-1
-1
-2
-3
-3
-3
-3
-1
1
2
4
4
5
5
4
3
2
1
1
0
-1
-1
-2
-2
-3
-4
-4
-4
-3
-3
-3
-3
-3
-4
-4
-5
-5
-5
-4
-3
-1
2
5
7
9
11
12
14
17
21
24
26
28
29
27
25
21
16
11
5
-1
-7
-14
-20
-26
-31
-33
-34
-34
-32
-29
-26
-22
-19
-16
-13
-11
-11
-10
-10
-9
-9
-7
-3
6
24
54
96
144
189
219
224
198
143
68
-13
-87
-143
-175
-185
-175
-153
-124
-93
-64
-39
-19
-4
8
16
22
25
26
25
24
21
19
16
14
14
14
15
16
18
20
21
22
23
24
26
27
29
32
35
39
42
46
49
52
55
58
61
65
68
70
72
73
73
71
67
60
51
38
23
5
-15
-36
-58
-78
-97
-112
-124
-132
-137
-138
-136
-131
-124
-115
-106
-97
-90
-83
-77
-70
-64
-58
-53
-48
-45
-41
-37
-34
-31
-28
-25
-24
-22
-20
-17
-15
-13
-12
-10
-9
-8
-6
-5
-5
-4
-4
-4
-3
-3
-3
-4
-4
-5
-5
-5
-5
-5
-4
-3
-3
-2
-2
-3
-3
-4
-5
-6
-7
-8
-10
-11
-12
-13
-13
-13
-12
-12
-11
-11
-11
-11
-10
-10
-9
-9
-8
-6
-4
-1
3
6
9
12
14
17
20
22
24
26
28
28
28
27
25
22
17
12
6
0
-7
-14
-20
-26
-31
-34
-36
-36
-35
-33
-30
-26
-22
-18
-14
-10
-8
-6
-4
-3
-2
2
10
27
55
97
147
199
241
260
247
201
129
44
-40
-108
-154
-174
-173
-156
-129
-100
-71
-46
-26
-11
0
7
12
16
17
18
17
16
14
13
12
12
13
15
17
20
22
24
26
28
30
32
34
36
39
41
43
46
48
50
0
0
54
58
62
66
71
75
79
82
84
84
83
79
73
64
53
39
23
5
-15
-37
-58
-77
-95
-109
-121
-128
-132
-132
-129
-124
-117
-110
-101
-93
-85
-77
-70
-64
-58
-52
-47
-42
-38
-34
-31
-28
-25
-22
-20
-19
-18
-17
-16
-14
-13
-12
-10
-9
-8
-6
-5
-4
-4
-3
-2
-1
1
2
3
4
5
4
3
1
0
0
1
3
4
5
6
7
8
7
7
5
4
2
1
1
0
0
0
0
-1
-1
-1
-1
0
0
1
1
1
1
1
0
0
0
1
2
4
6
8
11
14
18
22
25
28
30
29
27
24
20
15
9
2
-5
-12
-19
-25
-30
-34
-36
-37
-38
-38
-37
-36
-34
-31
-28
-25
-22
-19
-16
-12
-9
-6
-2
3
13
31
59
96
139
178
202
202
174
118
45
-34
-104
-156
-185
-190
-178
-152
-119
-85
-54
-27
-7
7
17
23
26
27
27
26
25
24
24
23
23
22
21
21
21
22
23
25
26
27
27
28
29
31
33
35
39
43
47
52
57
62
66
71
75
79
81
83
83
82
80
76
70
63
52
38
20
-1
-23
-47
-68
-88
-104
-115
-123
-127
-129
-127
-124
-119
-112
-106
-98
-91
-83
-74
-65
-56
-49
-42
-37
-32
-28
-25
-23
-22
-21
-20
-20
-19
-17
-15
-13
-11
-10
-9
-9
-9
-9
-7
-6
-5
-4
-4
-4
-3
-3
-2
0
1
1
1
1
0
0
0
1
1
1
0
-2
-4
-6
-7
-8
-7
-6
-5
-3
-1
1
2
2
1
0
-1
-2
-3
-3
-3
-3
-4
-6
-8
-10
-12
-12
-12
-11
-10
-9
-8
-6
-3
1
5
10
14
18
19
20
19
17
15
11
6
-1
-8
-17
-24
-31
-35
-38
-38
-37
-35
-32
-28
-24
-20
-18
-16
-15
-15
-15
-15
-15
-14
-13
-9
0
18
48
90
140
189
226
238
219
169
97
16
-60
-119
-155
-169
-164
-146
-122
-95
-69
-47
-28
-14
-3
5
12
16
19
20
20
19
17
16
14
14
15
16
18
19
20
22
23
25
26
28
30
33
36
39
41
44
47
50
53
58
62
67
71
75
78
79
80
80
78
76
71
63
51
36
18
-2
-23
-44
-63
-80
-95
-106
-114
-119
-121
-121
-118
-113
-107
-100
-92
-83
-75
-68
-62
-56
-51
-46
-40
-36
-33
-30
-27
-25
-23
-21
-19
-18
-16
-15
-14
-14
-14
-14
-14
-14
-14
-14
-14
-13
-12
-10
-9
-7
-7
-6
-6
-6
-5
-5
-5
-5
-5
-5
-4
-4
-3
-2
-2
-2
-3
-4
-5
-6
-6
-6
-6
-6
-6
-6
-5
-5
-5
-4
-4
-3
-2
-1
-1
-1
-2
-3
-4
-5
-5
-4
-3
-2
-1
0
1
2
3
5
7
11
16
21
25
27
28
28
26
23
20
17
12
7
-1
-9
-18
-27
-34
-38
-40
-39
-38
-35
-33
-30
-28
-26
-25
-23
-21
-18
-16
-14
-12
-10
-7
1
16
41
79
127
180
224
247
241
201
133
49
-36
-108
-158
-183
-185
-170
-145
-116
-87
-61
-39
-22
-9
1
8
13
15
16
16
16
16
17
18
19
20
21
22
24
25
27
27
28
28
28
28
30
32
35
39
43
48
52
57
61
65
67
70
72
72
73
72
71
70
68
64
58
49
36
20
2
-17
-37
-56
-74
-90
-104
-114
-122
-126
-127
-125
-122
-116
-109
-101
-92
-83
-75
-67
-60
-54
-49
-44
-39
-35
-31
-28
-26
-23
-21
-20
-18
-17
-15
-14
-13
-13
-12
-12
-12
-13
-13
-12
-12
-10
-8
-6
-4
-2
1
3
4
5
5
3
1
-1
-2
-2
-2
-2
-2
-4
-5
-7
-9
-9
-9
-9
-8
-7
-5
-4
-3
-3
-3
-3
-3
-3
-3
-2
-2
-2
-4
-5
-6
-7
-7
-6
-6
-5
-4
-4
-3
-3
-3
-2
-2
-2
-2
-1
-1
-1
0
1
2
3
5
8
11
15
19
22
25
26
26
24
21
16
9
1
-9
-18
-26
-34
-38
-41
-42
-42
-40
-39
-37
-35
-33
-31
-28
-25
-21
-17
-13
-10
-6
-2
5
19
43
80
128
181
228
257
256
222
158
76
-10
-85
-139
-169
-176
-166
-145
-120
-93
-68
-47
-29
-16
-6
1
5
8
9
11
12
13
14
15
16
16
17
19
20
22
23
24
24
25
25
25
26
27
30
34
38
43
48
53
57
62
65
68
70
72
74
75
76
76
75
72
67
60
50
36
19
0
-22
-44
-65
-85
-101
-114
-122
-126
-127
-126
-122
-116
-109
-101
-93
-84
-76
-68
-61
-54
-47
-41
-36
-31
-28
-25
-24
-22
-21
-19
-17
-15
-12
-10
-8
-7
-6
-7
-8
-9
-11
-13
-14
-13
-12
-11
-9
-8
-7
-6
-5
-5
-5
-4
-3
-2
1
3
4
5
4
4
4
4
4
3
2
1
0
-1
-2
-3
-4
-5
-5
-6
-6
-5
-5
-4
-3
-2
-1
-1
-2
-2
-2
-3
-3
-2
-2
-2
-3
-4
-5
-5
-6
-6
-4
-3
0
2
3
5
6
9
13
18
24
31
35
38
39
37
33
28
22
17
10
4
-4
-12
-20
-27
-32
-35
-36
-36
-35
-34
-33
-31
-29
-26
-23
-20
-17
-15
-13
-12
-11
-9
-4
8
31
68
117
173
225
260
266
236
174
90
-1
-82
-143
-179
-190
-182
-160
-132
-103
-76
-53
-35
-20
-9
-1
4
7
9
10
11
13
14
16
18
19
19
20
20
22
24
26
29
31
32
32
33
33
34
35
37
40
43
47
51
55
59
63
66
69
71
73
75
76
76
73
69
61
51
37
21
2
-18
-39
-60
-79
-96
-110
-120
-125
-128
-127
-125
-121
-116
-110
-104
-98
-91
-83
-75
-67
-61
-56
-51
-47
-43
-40
-36
-33
-30
-28
-25
-23
-20
-17
-15
-13
-11
-10
-9
-8
-8
-8
-9
-8
-8
-6
-5
-4
-3
-2
-2
-1
-1
0
1
1
2
2
2
3
3
3
2
1
0
-1
-2
-2
-3
-3
-4
-5
-5
-4
-3
-1
0
1
3
4
4
4
4
3
2
0
-1
-3
-4
-5
-5
-5
-4
-3
-2
-1
0
1
2
4
6
8
10
12
15
18
22
26
28
30
29
27
23
19
14
8
1
-6
-15
-24
-32
-39
-44
-46
-46
-44
-40
-36
-33
-29
-26
-23
-21
-19
-16
-13
-10
-8
-6
-1
9
29
62
107
159
209
243
250
224
165
84
-5
-86
-148
-184
-195
-185
-161
-131
-99
-69
-45
-24
-9
1
8
12
14
16
16
16
17
18
19
20
21
22
24
26
28
30
31
32
32
33
34
36
38
40
43
45
48
50
52
55
58
62
65
68
71
73
75
76
76
73
69
63
55
45
32
17
-1
-21
-42
-63
-82
-99
-113
-123
-128
-130
-129
-126
-120
-114
-107
-100
-92
-84
-75
-67
-59
-53
-47
-43
-39
-36
-33
-31
-28
-26
-24
-22
-20
-17
-14
-11
-8
-5
-3
-1
0
0
1
1
1
1
1
1
0
-1
-2
-3
-4
-3
-3
-2
-1
0
1
2
3
3
2
1
0
-1
-2
-2
-2
-2
-2
-1
-2
-2
-3
-4
-5
-6
-7
-8
-8
-8
-8
-8
-7
-6
-5
-2
2
6
10
14
18
21
23
25
26
25
24
22
18
12
7
1
-6
-12
-18
-24
-28
-31
-33
-33
-33
-33
-32
-31
-30
-28
-27
-25
-23
-20
-18
-15
-12
-8
-2
8
26
55
96
144
189
219
226
201
146
70
-12
-88
-146
-180
-190
-180
-155
-124
-90
-59
-32
-11
4
15
22
25
27
27
26
25
25
25
26
26
27
27
27
27
27
27
27
27
29
30
31
33
34
35
37
39
41
44
47
51
55
61
66
72
77
81
82
82
79
76
70
63
53
41
27
10
-10
-31
-53
-74
-93
-110
-122
-130
-135
-135
-132
-127
-121
-113
-105
-96
-87
-79
-71
-65
-60
-56
-51
-46
-42
-38
-35
-33
-30
-28
-25
-22
-20
-17
-14
-12
-10
-7
-6
-4
-2
0
2
3
3
3
3
3
3
3
3
4
4
5
5
4
2
0
-3
-5
-6
-6
-6
-6
-6
-6
-6
-6
-6
-7
-7
-8
-8
-8
-8
-8
-8
-8
-6
-5
-4
-3
-2
-1
-1
0
0
1
2
3
5
8
10
12
15
17
20
24
27
30
31
30
26
21
15
9
4
-2
-8
-14
-20
-26
-31
-34
-36
-36
-36
-35
-34
-32
-29
-26
-22
-19
-15
-12
-9
-7
-5
-3
3
16
39
75
122
173
217
242
238
202
139
58
-25
-96
-147
-174
-179
-166
-143
-115
-86
-60
-37
-21
-9
-2
3
5
7
8
9
10
12
13
15
17
17
18
17
17
17
18
19
21
23
24
26
27
29
31
34
38
42
46
50
54
58
61
64
66
69
70
72
72
72
70
66
60
52
41
28
12
-6
-25
-44
-63
-79
-93
-105
-113
-117
-119
-119
-116
-112
-108
-102
-96
-89
-81
-73
-66
-59
-52
-47
-41
-37
-34
-31
-28
-26
-24
-23
-22
-21
-20
-20
-20
-21
-22
-23
-23
-21
-19
-17
-14
-11
-9
-7
-5
-4
-3
-2
-1
-1
-1
-2
-1
-1
0
1
2
2
2
1
0
-1
-2
-3
-4
-6
-6
-6
-6
-5
-4
-5
-5
-6
-6
-6
-6
-6
-7
-7
-7
-7
-5
-3
0
2
4
6
7
9
10
12
14
16
18
20
23
25
27
28
28
27
25
21
17
11
4
-3
-10
-17
-22
-25
-27
-29
-30
-31
-31
-32
-33
-32
-32
-30
-27
-24
-22
-20
-19
-18
-17
-15
-9
4
28
67
118
174
224
255
254
218
151
65
-24
-101
-157
-187
-194
-181
-157
-126
-95
-67
-44
-26
-14
-5
1
4
6
7
8
9
10
11
11
11
12
13
14
16
17
18
19
20
22
24
25
27
27
28
29
30
31
33
36
39
42
45
48
50
51
52
52
51
50
48
44
38
29
18
3
-15
-35
-56
-76
-95
-112
-125
-136
-142
-146
-146
-144
-140
-134
-127
-119
-110
-101
-92
-84
-76
-69
-61
-54
-47
-40
-35
-30
-26
-23
-21
-20
-18
-17
-15
-14
-13
-12
-11
-10
-9
-7
-5
-3
-1
1
2
3
5
6
7
8
8
8
9
10
10
11
11
10
9
7
4
1
-3
-5
-7
-7
-5
-4
-2
0
1
2
3
3
4
4
3
2
1
1
1
1
1
0
0
-1
-1
-1
1
2
5
9
13
18
22
25
27
29
30
32
35
38
40
42
42
41
38
34
27
20
11
2
-7
-15
-23
-29
-34
-38
-39
-40
-39
-36
-34
-31
-28
-26
-25
-23
-21
-18
-15
-13
-11
-7
-1
12
36
72
120
175
226
261
268
239
178
93
2
-81
-142
-176
-186
-175
-152
-123
-93
-65
-41
-22
-7
3
10
14
17
18
18
18
18
18
19
20
21
22
23
23
24
25
26
28
30
32
33
34
35
37
39
41
44
46
50
54
57
61
64
67
70
73
75
76
76
75
71
66
58
48
35
19
2
-17
-37
-57
-75
-92
-105
-115
-123
-126
-127
-125
-119
-111
-101
-90
-81
-72
-65
-60
-55
-51
-47
-44
-41
-38
-35
-33
-31
-28
-26
-24
-23
-22
-21
-20
-19
-17
-15
-13
-11
-10
-9
-8
-6
-5
-4
-4
-3
-3
-3
-2
-1
-1
-1
-1
-2
-3
-4
-4
-4
-4
-2
-1
1
2
3
3
3
3
1
0
-2
-2
-2
-2
-2
-2
-3
-4
-5
-5
-4
-2
0
3
6
8
10
13
16
19
22
25
29
33
37
39
41
40
39
36
31
25
18
10
2
-6
-13
-20
-24
-27
-29
-29
-28
-26
-24
-22
-20
-19
-18
-17
-15
-14
-13
-11
-9
-6
0
12
31
61
102
149
193
223
229
204
152
77
-5
-83
-143
-181
-193
-184
-160
-127
-91
-57
-29
-7
10
21
28
33
35
36
35
34
32
31
29
27
26
26
26
27
28
29
31
33
35
37
40
42
43
45
47
49
52
55
59
63
67
70
73
76
78
80
81
81
80
79
76
70
63
52
37
20
-1
-23
-46
-67
-86
-102
-114
-123
-128
-130
-128
-125
-119
-113
-106
-99
-91
-82
-74
-66
-58
-52
-46
-40
-35
-31
-27
-24
-21
-18
-16
-14
-13
-12
-11
-9
-8
-6
-4
-2
-1
0
1
2
2
2
2
2
2
2
3
4
5
6
6
5
4
3
2
1
0
-1
-1
-2
-2
-3
-3
-4
-5
-6
-7
-7
-7
-7
-7
-7
-8
-8
-8
-7
-5
-3
1
5
9
13
17
21
25
28
30
31
30
29
27
24
19
13
6
-3
-11
-19
-26
-31
-34
-35
-35
-33
-31
-29
-26
-24
-22
-20
-18
-17
-14
-12
-9
-6
-3
2
10
27
54
94
142
189
226
238
220
169
94
8
-74
-139
-180
-195
-189
-167
-136
-102
-70
-41
-19
-2
10
18
23
26
28
29
29
28
27
27
26
26
26
27
27
28
28
28
27
26
26
26
27
29
31
34
37
40
44
48
52
55
59
63
67
70
72
74
76
76
75
73
68
61
50
35
17
-3
-24
-45
-66
-84
-99
-112
-121
-126
-128
-127
-124
-119
-112
-105
-97
-90
-83
-76
-69
-62
-56
-50
-45
-39
-35
-31
-27
-25
-23
-21
-19
-18
-16
-14
-13
-11
-10
-8
-6
-4
-3
-1
-1
-2
-3
-4
-4
-3
-2
0
1
2
2
1
0
-1
-2
-3
-3
-4
-4
-3
-3
-3
-3
-3
-4
-4
-4
-3
-2
-2
-2
-3
-4
-5
-6
-6
0
0
-6
-6
-7
-7
-6
-4
-2
2
5
9
11
12
13
14
15
17
19
22
25
27
28
28
28
27
25
21
14
7
-2
-10
-18
-24
-28
-31
-33
-33
-33
-32
-30
-28
-25
-22
-19
-16
-14
-12
-10
-9
-7
-5
1
12
33
67
114
167
216
248
251
221
160
79
-8
-86
-144
-178
-187
-178
-156
-128
-98
-70
-47
-28
-14
-4
4
10
13
16
16
17
17
17
19
20
22
24
25
25
25
25
26
27
30
32
34
36
38
39
40
42
45
49
53
58
62
66
68
70
71
72
73
72
71
69
64
58
50
39
26
10
-8
-27
-47
-66
-84
-99
-112
-120
-124
-124
-122
-117
-110
-104
-97
-90
-82
-75
-68
-61
-54
-48
-43
-39
-35
-32
-29
-26
-24
-22
-20
-17
-15
-12
-10
-9
-8
-8
-8
-9
-9
-8
-7
-6
-4
-3
-3
-3
-3
-3
-3
-2
-1
0
1
2
4
5
7
8
8
8
7
6
5
4
2
1
-1
-3
-4
-5
-5
-5
-5
-4
-3
-2
0
1
2
3
4
4
5
5
5
5
4
3
3
4
6
9
11
13
14
16
19
22
26
31
34
36
37
37
36
34
30
25
18
9
-1
-12
-23
-32
-39
-43
-45
-44
-41
-37
-32
-28
-25
-22
-21
-19
-18
-16
-15
-13
-12
-9
-2
13
40
80
132
189
238
265
261
222
152
65
-24
-100
-153
-180
-184
-171
-148
-121
-92
-67
-45
-28
-14
-5
1
5
7
9
10
11
12
13
15
18
21
24
27
29
30
31
32
33
34
35
36
37
39
40
42
45
48
51
55
59
64
68
72
77
81
83
85
84
83
80
75
68
58
45
29
11
-10
-31
-53
-72
-90
-104
-114
-121
-124
-125
-124
-120
-115
-108
-100
-92
-84
-76
-69
-62
-55
-49
-44
-39
-36
-33
-31
-28
-26
-24
-22
-21
-20
-20
-19
-17
-15
-12
-10
-9
-8
-7
-7
-6
-4
-2
1
3
5
7
8
9
10
10
10
11
10
10
9
8
6
5
3
2
0
-1
-2
-3
-3
-4
-4
-4
-4
-4
-3
-2
-1
0
1
1
1
1
1
1
1
2
3
4
6
8
11
14
16
18
20
23
27
31
34
37
38
37
35
31
26
20
12
4
-4
-11
-18
-23
-28
-31
-33
-34
-33
-30
-26
-22
-19
-16
-15
-13
-12
-12
-11
-9
-8
-5
0
9
26
53
90
135
180
214
225
207
158
87
6
-72
-134
-173
-189
-183
-162
-132
-99
-66
-38
-15
3
16
25
31
34
35
34
33
31
30
30
29
28
27
26
26
26
26
26
25
25
26
28
31
34
37
41
45
48
51
55
58
61
63
65
68
70
73
75
77
78
78
75
69
60
47
32
14
-6
-26
-46
-66
-85
-100
-112
-119
-123
-123
-120
-115
-110
-102
-95
-87
-80
-72
-64
-57
-51
-46
-42
-39
-36
-33
-31
-29
-27
-25
-23
-21
-19
-17
-15
-13
-11
-9
-8
-6
-5
-5
-5
-4
-4
-3
-2
-2
-2
-3
-3
-3
-2
-1
1
3
5
6
7
7
6
4
2
1
-2
-3
-5
-6
-7
-7
-7
-8
-8
-9
-9
-8
-6
-4
-2
0
2
3
4
5
5
5
6
7
8
10
12
15
17
18
18
18
16
13
10
7
3
-2
-7
-13
-20
-25
-30
-32
-32
-30
-28
-26
-24
-23
-21
-20
-18
-16
-14
-11
-9
-7
-4
-1
5
16
35
64
104
150
191
218
219
190
134
58
-23
-95
-150
-181
-187
-175
-149
-117
-84
-54
-30
-11
4
14
21
25
27
27
27
26
25
24
22
21
20
19
19
19
19
21
23
24
26
27
28
30
32
34
38
42
46
50
54
57
60
63
66
69
72
76
78
79
78
74
68
60
50
38
23
6
-13
-34
-55
-75
-93
-107
-117
-124
-128
-128
-126
-121
-115
-108
-100
-91
-83
-76
-69
-62
-56
-51
-47
-43
-40
-37
-34
-31
-27
-24
-21
-18
-16
-15
-14
-14
-13
-11
-9
-7
-6
-5
-4
-2
-1
1
2
4
5
6
7
6
5
3
2
1
1
2
3
3
4
3
2
0
-2
-3
-4
-5
-5
-4
-4
-3
-3
-2
-2
-2
-1
-1
-2
-3
-4
-5
-6
-7
-7
-7
-5
-3
-1
2
4
6
7
9
10
13
17
21
25
28
30
30
29
26
22
16
9
1
-7
-15
-22
-27
-30
-32
-32
-32
-30
-28
-27
-26
-24
-23
-22
-20
-18
-17
-14
-12
-10
-5
4
20
48
88
136
185
222
237
222
176
106
25
-53
-115
-156
-173
-171
-155
-130
-103
-76
-52
-33
-17
-6
3
8
12
13
13
13
13
13
13
13
14
15
16
18
19
19
20
20
21
22
23
24
26
29
33
37
41
45
49
53
57
60
63
64
65
65
65
66
66
66
65
61
55
45
32
16
-2
-22
-41
-59
-76
-91
-104
-113
-120
-122
-122
-118
-112
-106
-99
-93
-86
-80
-74
-68
-61
-55
-49
-45
-41
-37
-35
-33
-32
-30
-29
-28
-27
-26
-24
-23
-21
-18
-15
-12
-9
-7
-6
-6
-7
-8
-9
-9
-9
-9
-9
-9
-8
-7
-6
-6
-6
-6
-7
-8
-8
-8
-7
-7
-5
-4
-3
-2
-1
-1
-1
-1
-2
-2
-2
-1
-2
-2
-3
-5
-6
-6
-7
-7
-6
-6
-6
-6
-5
-4
-3
-2
-1
1
2
3
5
7
8
9
9
10
12
14
17
20
22
22
22
22
21
19
17
13
8
2
-6
-14
-23
-32
-38
-42
-45
-45
-43
-39
-36
-32
-29
-26
-23
-20
-17
-14
-12
-9
-6
-1
6
20
43
79
125
176
222
249
248
215
152
72
-12
-85
-138
-167
-173
-163
-142
-115
-88
-62
-40
-22
-8
2
8
12
14
14
14
13
13
12
12
12
12
12
12
11
11
11
12
13
14
16
19
22
25
29
33
37
41
45
49
53
57
61
64
67
69
70
70
69
66
62
57
50
41
30
16
-1
-20
-39
-58
-75
-90
-103
-114
-121
-125
-126
-125
-121
-116
-109
-101
-92
-84
-76
-69
-62
-56
-50
-45
-41
-37
-34
-32
-29
-25
-22
-19
-16
-14
-12
-11
-10
-10
-10
-9
-9
-7
-6
-5
-5
-4
-4
-3
-2
0
3
6
8
11
13
15
15
15
14
13
11
10
8
6
4
3
2
1
0
-1
-1
-1
0
1
1
2
2
2
2
1
0
0
-1
0
1
3
5
7
7
7
5
3
1
-1
-1
-1
-1
0
1
3
4
5
6
7
8
11
15
20
26
32
36
37
36
33
27
21
14
8
1
-7
-15
-22
-28
-32
-35
-35
-35
-34
-33
-33
-32
-31
-31
-30
-28
-26
-23
-20
-18
-16
-13
-7
5
28
64
113
169
223
260
268
241
180
97
6
-76
-138
-173
-185
-176
-156
-130
-102
-77
-55
-37
-22
-11
-3
3
8
11
14
17
18
19
19
19
20
20
21
23
25
26
28
30
31
32
33
35
37
39
42
46
51
55
60
63
67
69
72
75
76
78
79
79
78
76
72
66
58
47
33
15
-5
-26
-47
-67
-85
-100
-111
-118
-122
-123
-122
-120
-115
-110
-104
-97
-90
-82
-75
-69
-63
-57
-52
-47
-42
-37
-33
-30
-28
-26
-25
-23
-22
-21
-20
-18
-16
-14
-12
-10
-8
-8
-8
-8
-9
-9
-9
-7
-5
-3
0
2
3
2
1
-1
-2
-4
-5
-5
-5
-5
-5
-5
-5
-4
-4
-3
-2
-1
0
1
1
1
2
3
4
5
5
6
7
7
8
7
6
5
3
2
1
0
0
0
1
3
4
6
7
9
11
13
17
22
26
30
33
34
34
32
30
26
23
18
12
4
-5
-14
-23
-29
-33
-34
-34
-32
-31
-29
-28
-27
-27
-26
-24
-22
-20
-17
-14
-12
-10
-8
-4
6
25
57
102
156
210
249
262
241
185
106
16
-67
-132
-171
-185
-178
-157
-128
-98
-69
-45
-25
-10
1
8
13
16
19
20
21
21
20
20
20
20
21
21
22
22
23
25
26
27
29
30
31
32
34
36
38
39
40
42
45
48
52
58
64
69
72
75
76
76
74
71
67
61
51
38
21
1
-20
-42
-62
-81
-96
-108
-117
-123
-125
-124
-121
-116
-110
-102
-95
-87
-79
-72
-65
-57
-51
-44
-38
-33
-29
-26
-23
-21
-20
-19
-18
-16
-14
-12
-9
-7
-4
-2
-1
0
1
2
4
6
8
10
11
11
11
10
9
8
6
4
2
1
0
0
0
1
2
3
4
4
4
3
1
0
-1
-2
-3
-4
-5
-5
-4
-4
-3
-2
-1
-1
-1
-1
-1
-1
-2
-2
-2
-2
0
2
5
8
10
12
14
16
20
24
27
30
32
32
30
28
24
19
12
4
-5
-14
-24
-33
-40
-44
-46
-45
-42
-40
-38
-36
-36
-35
-34
-31
-28
-24
-20
-15
-12
-9
-6
-2
5
20
47
85
134
183
221
236
219
171
98
13
-68
-134
-175
-190
-184
-162
-131
-98
-66
-38
-14
3
15
23
27
30
31
31
31
31
30
29
28
27
26
26
25
26
27
28
30
32
34
35
35
36
37
39
42
45
50
54
59
64
69
73
76
78
80
80
79
77
76
73
69
62
52
39
22
4
-17
-37
-56
-75
-92
-105
-116
-123
-127
-128
-127
-123
-116
-108
-98
-87
-78
-68
-60
-52
-45
-40
-35
-30
-26
-22
-19
-16
-14
-12
-11
-10
-9
-7
-6
-4
-2
0
1
2
2
3
5
6
8
9
9
9
9
9
9
9
9
9
8
7
6
4
3
2
2
2
3
3
3
2
1
1
1
2
3
3
3
1
0
-2
-2
-2
-1
0
0
1
1
1
2
4
6
8
10
11
12
13
14
16
18
22
25
27
28
27
25
22
18
13
7
-1
-9
-18
-25
-32
-36
-39
-40
-40
-39
-38
-36
-35
-34
-33
-32
-30
-27
-24
-19
-14
-10
-6
-1
8
25
54
97
148
198
235
247
225
170
92
5
-77
-141
-180
-194
-188
-168
-140
-110
-81
-56
-36
-20
-9
-1
4
7
9
9
8
7
6
6
7
9
11
14
16
17
19
20
21
23
25
27
31
34
37
39
41
43
45
47
49
52
54
57
60
63
65
67
68
68
67
65
60
52
41
28
12
-6
-25
-44
-63
-80
-95
-108
-117
-123
-125
-125
-122
-117
-110
-102
-94
-86
-79
-73
-68
-64
-58
-52
-46
-40
-35
-31
-28
-26
-24
-22
-21
-19
-18
-17
-16
-16
-16
-16
-16
-15
-14
-13
-11
-10
-8
-6
-3
-1
1
3
4
5
5
5
5
5
5
5
4
3
2
0
-1
-2
-2
-2
-2
-2
-2
-2
-3
-2
-2
-1
0
1
2
2
3
2
2
1
-1
-3
-5
-5
-6
-5
-3
-1
1
3
6
8
9
11
12
14
16
20
25
31
37
41
44
44
42
38
34
30
24
18
11
2
-7
-16
-24
-30
-35
-37
-38
-37
-35
-33
-30
-27
-25
-22
-19
-17
-14
-12
-10
-9
-8
-5
3
19
47
89
142
198
244
267
257
213
140
52
-35
-108
-156
-178
-178
-161
-135
-106
-77
-52
-31
-15
-4
4
9
13
17
20
22
23
24
25
26
27
28
28
29
29
28
28
28
28
30
31
33
35
35
36
37
39
43
47
51
55
59
63
67
70
73
76
78
79
79
78
75
70
62
51
36
19
-1
-22
-44
-65
-85
-101
-114
-122
-126
-126
-123
-119
-112
-105
-97
-88
-79
-71
-63
-56
-50
-44
-38
-33
-28
-24
-20
-17
-14
-12
-11
-11
-10
-9
-8
-8
-7
-7
-6
-4
-1
2
4
6
7
8
8
7
7
7
7
7
7
7
6
5
4
3
2
1
1
1
3
5
7
8
8
7
6
5
4
3
2
2
1
1
1
1
1
1
1
0
-1
-2
-3
-3
-4
-4
-4
-4
-3
-2
-2
-1
0
0
1
2
3
4
6
8
12
17
23
29
34
38
39
38
35
31
27
21
14
6
-2
-11
-19
-26
-31
-35
-37
-37
-36
-34
-32
-30
-28
-27
-26
-24
-21
-18
-15
-12
-10
-8
-3
9
33
69
119
174
223
254
255
220
155
69
-19
-96
-152
-182
-188
-176
-153
-124
-93
-65
-41
-23
-10
-1
4
7
8
8
9
10
12
14
16
18
19
19
20
21
21
22
22
23
24
25
27
29
31
33
35
37
40
44
48
52
56
59
62
64
66
67
68
69
70
70
68
64
56
46
32
16
-4
-24
-46
-66
-85
-101
-113
-122
-127
-129
-128
-124
-117
-110
-102
-94
-85
-77
-70
-63
-57
-51
-46
-42
-38
-35
-31
-28
-25
-22
-19
-16
-13
-11
-9
-8
-9
-9
-11
-12
-12
-13
-12
-10
-8
-5
-2
2
4
5
5
4
3
2
1
0
-2
-3
-5
-6
-7
-7
-7
-6
-6
-5
-4
-4
-3
-4
-5
-6
-7
-8
-8
-9
-9
-9
-9
-8
-8
-7
-7
-8
-8
-8
-8
-7
-5
-4
-4
-5
-6
-7
-7
-6
-4
-3
-2
-1
0
1
2
5
9
13
18
23
28
32
35
37
37
35
32
27
21
13
4
-5
-15
-24
-31
-37
-41
-43
-43
-41
-38
-35
-31
-28
-25
-22
-20
-17
-14
-11
-9
-7
-3
6
23
53
96
150
203
245
262
245
194
116
26
-59
-126
-169
-185
-180
-160
-131
-100
-71
-46
-26
-11
1
10
16
21
25
26
27
27
27
26
24
23
22
21
0
0
22
22
23
25
26
28
31
33
34
36
38
39
40
42
45
48
51
55
58
61
64
66
67
69
70
70
69
67
63
56
47
34
19
2
-18
-38
-58
-77
-93
-106
-115
-121
-124
-124
-122
-118
-114
-109
-103
-97
-90
-83
-75
-67
-60
-54
-48
-42
-37
-33
-30
-28
-26
-25
-24
-23
-22
-20
-19
-17
-14
-12
-10
-8
-7
-7
-6
-6
-6
-5
-4
-3
-2
-1
-1
-1
-2
-3
-2
-2
-1
-1
0
0
-1
-1
-2
-3
-4
-6
-6
-7
-6
-6
-6
-5
-6
-6
-7
-7
-7
-7
-6
-5
-4
-3
-3
-3
-4
-4
-5
-6
-6
-6
-5
-4
-2
0
2
4
7
10
14
18
23
27
30
33
35
35
35
34
32
28
23
16
9
0
-8
-16
-23
-28
-33
-35
-35
-33
-30
-26
-24
-22
-21
-20
-19
-17
-15
-13
-11
-9
-8
-5
1
14
38
72
116
163
200
217
206
164
96
15
-65
-131
-174
-192
-186
-164
-132
-96
-61
-29
-3
17
32
40
44
45
44
42
40
39
38
37
37
36
36
35
34
33
32
31
31
32
33
35
37
39
41
43
46
49
53
57
63
67
71
74
76
78
80
81
82
82
80
76
70
62
52
39
23
4
-18
-40
-61
-81
-98
-111
-122
-128
-131
-130
-127
-121
-114
-107
-99
-92
-85
-79
-73
-67
-62
-57
-53
-49
-44
-39
-34
-29
-25
-21
-18
-16
-14
-11
-9
-7
-4
-2
0
1
3
4
5
6
7
7
8
8
8
9
9
9
9
9
8
7
7
6
5
5
4
2
0
-2
-3
-4
-5
-6
-7
-8
-9
-10
-11
-11
-11
-11
-10
-8
-6
-5
-3
-2
-1
-1
0
0
0
1
2
4
6
8
11
13
16
18
20
22
24
25
26
26
26
25
23
21
19
16
10
4
-4
-13
-22
-30
-36
-40
-42
-43
-42
-40
-37
-34
-30
-25
-21
-16
-12
-9
-6
-6
-6
-7
-4
4
22
54
100
156
211
252
266
246
191
111
20
-65
-132
-173
-188
-183
-163
-135
-105
-77
-51
-31
-14
-3
5
10
12
13
12
11
11
10
11
12
13
14
16
17
19
20
22
23
24
25
26
28
30
33
37
41
45
48
52
54
57
59
62
63
65
66
66
67
68
67
66
62
55
45
33
17
0
-19
-38
-57
-75
-92
-104
-113
-118
-118
-114
-108
-101
-93
-85
-77
-70
-63
-56
-51
-46
-42
-37
-34
-30
-28
-26
-24
-22
-20
-17
-14
-12
-9
-8
-6
-6
-5
-5
-5
-5
-5
-5
-5
-4
-2
0
2
3
4
5
5
5
5
4
4
3
3
3
4
5
6
7
6
5
2
0
-2
-4
-5
-6
-6
-7
-8
-9
-9
-9
-9
-8
-6
-5
-3
-1
0
0
1
1
1
2
4
7
10
13
16
17
18
19
21
23
26
28
30
31
30
28
25
22
18
14
10
4
-3
-10
-18
-25
-32
-37
-40
-42
-41
-38
-35
-32
-30
-28
-27
-26
-24
-22
-19
-17
-14
-9
-1
14
39
76
121
169
209
228
220
180
115
36
-43
-110
-155
-177
-178
-162
-137
-108
-79
-52
-31
-14
-2
6
10
13
13
14
14
14
15
17
18
20
22
23
23
23
23
23
23
22
22
21
21
22
24
26
30
33
37
41
46
50
53
56
59
61
64
66
67
67
66
64
58
51
41
28
13
-5
-25
-46
-66
-84
-100
-112
-121
-125
-127
-126
-122
-116
-109
-102
-94
-86
-79
-72
-66
-59
-53
-47
-41
-37
-33
-31
-29
-27
-26
-25
-25
-24
-24
-23
-22
-21
-20
-19
-19
-19
-18
-17
-16
-13
-11
-9
-8
-7
-7
-7
-7
-7
-7
-7
-7
-7
-7
-6
-5
-4
-3
-1
-1
-1
-1
-2
-3
-5
-7
-9
-10
-12
-13
-14
-14
-14
-13
-11
-10
-9
-8
-7
-5
-3
-1
1
2
2
1
-1
-2
-3
-3
-4
-4
-3
-2
-1
1
2
4
6
9
12
15
19
22
23
23
22
19
15
10
4
-4
-12
-21
-29
-36
-41
-43
-43
-41
-37
-34
-31
-28
-25
-24
-23
-22
-20
-19
-17
-15
-13
-10
-3
12
38
76
125
177
223
249
246
210
146
66
-17
-89
-141
-169
-175
-165
-144
-118
-91
-66
-45
-29
-17
-8
-3
0
2
4
6
9
11
13
14
15
16
17
18
19
21
22
22
23
23
24
26
28
31
35
38
42
46
50
53
56
58
61
63
66
68
71
73
74
74
73
70
64
54
42
26
9
-10
-30
-50
-68
-84
-98
-108
-115
-118
-119
-116
-113
-108
-101
-94
-86
-78
-70
-61
-53
-46
-39
-33
-28
-24
-21
-20
-20
-21
-22
-23
-22
-21
-19
-16
-13
-11
-10
-9
-8
-8
-8
-7
-7
-6
-5
-4
-4
-3
-3
-3
-3
-3
-4
-5
-6
-6
-6
-5
-4
-4
-4
-3
-3
-2
-2
-2
-2
-2
-2
-1
0
1
1
2
2
2
2
1
1
0
-1
-1
-2
-3
-3
-3
-2
-1
0
1
1
1
1
1
1
1
2
3
6
8
12
15
19
24
28
33
36
39
39
39
37
34
28
21
12
2
-8
-18
-26
-32
-37
-39
-39
-38
-36
-34
-32
-29
-27
-25
-23
-21
-19
-16
-14
-12
-9
-3
9
33
69
118
174
225
259
264
234
171
87
-2
-81
-140
-174
-183
-174
-152
-125
-96
-70
-48
-31
-17
-7
2
8
12
16
18
19
20
21
22
22
23
23
22
22
21
21
22
23
24
26
28
31
33
36
39
43
47
52
57
62
67
70
73
75
77
77
78
77
77
75
72
67
60
48
33
16
-5
-26
-48
-69
-88
-104
-116
-124
-128
-128
-124
-119
-112
-104
-96
-88
-80
-73
-67
-61
-56
-52
-47
-43
-38
-33
-29
-24
-20
-16
-13
-10
-8
-8
-7
-8
-8
-8
-8
-9
-9
-9
-10
-9
-9
-8
-7
-6
-5
-4
-3
-1
0
1
2
2
2
1
1
1
2
3
3
3
2
2
2
2
2
2
2
2
1
1
1
0
0
-1
-2
-3
-4
-4
-5
-5
-4
-4
-3
-2
-2
-2
-3
-3
-3
-2
-2
-2
-1
0
1
2
3
3
3
4
5
8
12
18
23
28
31
33
33
31
27
22
15
7
-2
-12
-22
-30
-37
-42
-46
-47
-47
-45
-42
-38
-34
-30
-25
-22
-19
-17
-16
-14
-14
-13
-11
-3
15
46
92
147
203
244
259
238
182
99
6
-82
-152
-196
-213
-208
-188
-161
-130
-101
-77
-57
-42
-33
-27
-24
-24
-25
-26
-27
-28
-28
-30
-33
-38
-45
-54
-66
-78
-91
-104
-117
-129
-141
-151
-159
-165
-168
-169
-168
-165
-160
-153
-145
-137
-128
-119
-111
-103
-96
-89
-83
-79
-76
-74
-75
-77
-81
-87
-97
-108
-122
-137
-151
-165
-177
-187
-193
-195
-195
-192
-186
-179
-170
-161
-150
-139
-129
-119
-109
-101
-94
-88
-82
-77
-72
-68
-65
-62
-59
-55
-50
-45
-39
-35
-30
-27
-24
-22
-21
-20
-19
-18
-16
-14
-12
-10
-8
-6
-4
-2
0
2
3
4
5
5
5
5
5
5
5
5
6
5
5
4
2
1
-1
-3
-5
-7
-8
-9
-10
-10
-10
-10
-10
-9
-8
-6
-4
-2
-1
0
1
1
1
1
1
2
3
4
5
6
6
5
3
2
2
2
4
6
9
12
16
20
25
30
36
41
46
48
49
49
48
47
44
39
31
20
8
-3
-12
-19
-22
-23
-22
-20
-17
-14
-12
-10
-8
-6
-3
1
4
7
9
10
11
13
21
38
67
109
162
216
259
277
263
214
139
51
-33
-101
-146
-166
-165
-149
-124
-95
-66
-40
-17
1
14
24
30
33
35
36
36
36
36
36
36
36
36
37
37
38
39
40
40
41
43
45
47
50
53
56
58
61
63
65
68
70
73
76
79
82
84
87
90
92
92
90
84
77
66
53
37
20
1
-18
-37
-55
-71
-86
-97
-104
-107
-107
-103
-97
-90
-82
-74
-66
-59
-53
-47
-43
-39
-36
-34
-31
-28
-25
-23
-20
-17
-14
-10
-5
-1
2
5
7
10
12
14
17
19
20
21
21
20
18
17
17
16
16
17
17
18
18
18
18
17
15
14
13
12
11
11
12
12
12
11
11
11
12
13
15
17
19
19
19
18
17
16
15
15
15
16
17
17
17
16
15
13
12
11
11
12
13
15
18
21
24
28
31
34
37
40
43
47
50
53
54
53
51
47
41
36
29
21
12
3
-6
-14
-19
-23
-24
-23
-21
-17
-13
-8
-4
-1
2
4
5
7
9
11
12
14
17
25
41
70
111
161
211
246
255
232
177
99
14
-65
-125
-160
-170
-159
-135
-103
-70
-38
-11
11
26
37
43
46
47
46
45
43
41
38
36
34
33
33
34
36
39
41
42
44
45
47
48
49
50
50
51
52
54
57
61
66
70
75
78
80
81
81
80
79
77
75
71
67
61
52
40
26
10
-8
-28
-47
-66
-82
-95
-104
-110
-112
-111
-109
-105
-100
-95
-89
-82
-75
-69
-62
-56
-50
-43
-37
-31
-26
-23
-21
-19
-17
-14
-11
-9
-7
-5
-2
0
3
4
5
5
5
5
6
7
9
10
11
12
12
12
12
12
12
12
12
11
11
10
9
8
7
6
5
4
3
3
3
4
4
5
6
7
7
7
7
6
5
5
4
4
5
5
6
6
7
7
8
9
9
9
9
10
10
11
12
13
15
17
19
21
23
24
26
29
33
36
39
41
41
39
36
32
27
21
15
9
2
-4
-11
-16
-21
-23
-24
-23
-20
-17
-14
-11
-9
-7
-4
-2
0
2
4
5
8
15
30
56
94
141
188
223
236
218
170
98
15
-65
-128
-168
-183
-176
-153
-120
-84
-49
-19
5
21
31
36
38
37
35
34
32
32
32
33
33
34
35
36
37
38
40
42
44
47
49
50
51
52
52
53
54
55
56
57
59
62
65
68
72
76
79
81
82
82
80
77
71
64
55
42
27
9
-11
-32
-52
-70
-86
-99
-109
-115
-119
-119
-117
-112
-106
-99
-92
-84
-77
-70
-63
-56
-49
-42
-36
-30
-24
-20
-17
-14
-13
-12
-12
-11
-11
-10
-9
-8
-7
-5
-3
0
2
5
8
10
11
12
12
12
12
11
10
10
10
10
11
12
13
14
14
13
12
11
10
9
8
8
8
7
5
3
2
1
0
0
1
2
3
5
6
7
8
9
10
11
12
14
17
20
23
26
28
30
30
29
26
22
17
9
0
-9
-18
-25
-31
-35
-37
-38
-37
-36
-34
-30
-26
-22
-18
-13
-10
-7
-5
-3
-1
1
5
15
35
68
114
168
220
257
267
244
187
107
18
-65
-129
-168
-181
-174
-154
-126
-97
-69
-45
-25
-10
1
9
14
17
18
19
20
21
22
24
26
29
31
33
33
33
32
31
30
29
30
31
34
36
39
41
44
48
53
59
65
70
75
78
80
82
84
84
85
84
82
78
71
62
49
33
14
-7
-30
-51
-71
-87
-100
-109
-114
-117
-117
-117
-115
-112
-107
-101
-93
-85
-78
-70
-64
-58
-53
-48
-44
-40
-37
-34
-31
-28
-25
-21
-18
-15
-12
-9
-7
-4
-2
0
2
4
5
6
6
6
5
4
2
1
0
-1
-1
-1
-1
-1
-2
-2
-2
-1
1
2
3
4
4
4
4
4
4
3
3
3
4
5
6
7
8
9
11
15
19
24
28
32
34
34
32
29
25
20
14
6
-2
-10
-18
-25
-31
-35
-37
-37
-36
-34
-32
-29
-26
-24
-22
-19
-17
-14
-12
-10
-8
-6
0
12
36
72
121
176
228
263
270
242
182
99
10
-71
-133
-169
-180
-171
-149
-121
-91
-64
-41
-23
-10
-1
6
10
13
16
17
18
18
19
20
21
22
23
24
25
25
26
27
28
30
31
32
34
36
39
42
46
50
54
58
61
64
67
69
71
73
75
76
77
78
77
73
65
54
40
23
4
-16
-36
-56
-76
-94
-109
-120
-127
-129
-128
-124
-118
-110
-101
-93
-85
-78
-71
-65
-60
-54
-49
-44
-40
-36
-34
-31
-29
-27
-24
-22
-19
-17
-15
-14
-14
-13
-13
-12
-10
-8
-6
-5
-4
-4
-5
-6
-6
-6
-5
-3
-1
1
3
3
4
4
3
2
1
0
-1
-1
-2
-2
-1
-2
-2
-3
-4
-4
-4
-3
-2
-2
-2
-2
-2
-1
0
2
4
6
9
11
14
17
21
25
29
33
35
36
35
33
30
26
21
15
8
-1
-10
-19
-26
-32
-35
-37
-37
-37
-36
-34
-32
-30
-28
-26
-24
-22
-19
-15
-12
-9
-6
-2
8
27
59
104
158
213
255
272
255
204
126
36
-51
-121
-167
-186
-184
-167
-141
-113
-86
-62
-41
-24
-9
2
10
15
18
20
21
21
22
23
24
24
25
25
25
25
25
25
25
26
27
30
33
37
40
43
45
48
52
56
60
65
69
72
76
79
81
82
82
80
77
72
65
56
44
29
12
-7
-26
-46
-66
-84
-99
-112
-122
-127
-130
-129
-126
-121
-114
-107
-99
-90
-82
-74
-67
-60
-54
-48
-43
-38
-33
-30
-27
-24
-22
-20
-19
-18
-17
-15
-13
-11
-10
-9
-8
-9
-9
-9
-8
-6
-4
-3
-1
1
2
3
3
3
3
3
3
3
3
3
3
3
3
2
2
1
0
-1
0
1
2
3
0
0
3
3
3
2
1
-1
-2
-3
-3
-3
-3
-2
0
2
5
7
10
13
16
20
24
29
34
37
40
41
40
38
35
31
25
18
9
-1
-11
-21
-30
-36
-40
-42
-42
-40
-38
-34
-30
-26
-22
-18
-15
-13
-11
-9
-8
-6
-3
1
11
30
62
108
162
217
258
272
252
198
117
26
-60
-127
-169
-186
-182
-163
-136
-107
-78
-53
-33
-18
-7
1
7
10
12
14
15
16
18
20
22
25
27
29
30
30
29
28
27
27
28
30
32
34
37
40
43
47
52
56
60
64
67
70
72
73
75
75
75
74
71
66
59
50
39
25
9
-9
-28
-48
-68
-87
-104
-118
-129
-137
-142
-143
-141
-137
-131
-123
-114
-105
-95
-85
-77
-69
-63
-57
-52
-47
-42
-37
-32
-26
-20
-15
-9
-5
-2
0
1
1
1
2
2
2
2
2
3
3
3
3
3
3
3
3
4
6
7
9
10
10
10
10
10
10
10
10
11
11
12
12
12
10
8
6
3
2
0
-1
-1
-1
-2
-2
-2
-2
-1
1
2
3
4
4
4
4
5
7
10
13
16
18
18
18
19
20
23
27
30
32
34
34
33
31
27
21
13
5
-5
-15
-24
-32
-37
-39
-38
-35
-32
-29
-27
-26
-25
-24
-22
-19
-15
-11
-8
-6
-4
-2
4
18
44
85
137
193
241
267
261
220
149
62
-26
-100
-151
-176
-179
-165
-142
-113
-85
-61
-40
-25
-14
-6
-1
3
6
8
10
13
16
19
22
23
23
23
22
22
23
24
26
29
32
34
36
37
38
40
42
45
48
51
54
58
61
64
67
70
72
74
75
75
74
71
67
62
54
43
28
10
-11
-33
-55
-75
-93
-107
-117
-124
-127
-127
-124
-119
-112
-105
-96
-88
-80
-71
-64
-56
-50
-45
-40
-36
-32
-29
-26
-24
-21
-19
-18
-16
-14
-12
-10
-9
-8
-7
-6
-6
-5
-3
-2
0
2
2
3
3
2
2
1
1
1
1
1
2
2
3
5
6
6
6
6
5
4
2
1
0
0
1
2
3
3
3
3
2
1
-1
-2
-2
-2
-1
0
1
3
3
3
3
2
2
2
3
5
8
10
14
18
22
26
30
34
35
36
35
33
31
27
23
19
12
5
-4
-13
-21
-29
-34
-38
-40
-41
-41
-39
-37
-34
-31
-27
-23
-19
-16
-13
-11
-9
-7
-4
2
12
31
61
103
153
202
236
246
223
168
90
3
-78
-141
-178
-189
-179
-154
-122
-88
-57
-30
-8
8
19
26
31
33
34
34
33
32
31
29
28
27
27
27
28
28
30
32
34
36
38
39
41
42
44
46
48
51
54
58
62
66
70
74
78
81
84
86
87
86
83
78
70
60
46
30
11
-10
-31
-53
-75
-94
-111
-124
-132
-137
-138
-136
-132
-125
-116
-106
-96
-86
-77
-69
-62
-55
-50
-43
-37
-32
-26
-21
-17
-13
-10
-7
-4
-2
0
2
2
3
2
2
2
3
4
4
5
4
4
3
3
2
2
2
2
2
1
1
0
-1
-2
-3
-3
-4
-5
-7
-8
-9
-10
-11
-12
-12
-12
-12
-10
-8
-5
-2
-1
0
-1
-2
-4
-5
-6
-7
-7
-6
-5
-4
-1
2
6
10
13
17
21
26
31
35
38
38
37
35
32
29
25
19
12
4
-5
-14
-21
-26
-29
-30
-30
-28
-26
-24
-22
-20
-18
-17
-16
-15
-14
-12
-9
-7
-4
0
7
19
41
73
114
159
197
218
213
179
118
41
-38
-107
-156
-182
-185
-170
-144
-112
-79
-48
-22
-1
14
25
31
34
35
34
33
31
29
28
27
27
27
28
28
28
28
29
29
31
32
34
36
38
40
43
46
49
53
57
61
65
68
71
73
74
75
76
77
77
75
71
66
58
48
34
18
-2
-23
-45
-67
-86
-103
-116
-126
-132
-135
-135
-133
-128
-121
-113
-105
-95
-86
-78
-69
-62
-55
-49
-43
-39
-35
-32
-30
-28
-27
-25
-23
-21
-19
-17
-16
-14
-12
-11
-8
-5
-2
1
5
7
9
11
11
11
10
10
10
9
9
9
8
7
6
5
4
2
1
0
0
-1
-1
-1
-1
-1
0
0
-1
-2
-4
-6
-8
-9
-9
-7
-6
-4
-2
0
1
2
2
2
2
2
3
5
7
10
14
18
21
25
28
30
30
30
28
25
23
20
17
11
4
-4
-12
-19
-25
-29
-31
-32
-33
-32
-32
-30
-28
-25
-22
-19
-16
-12
-9
-6
-3
-1
1
3
9
24
50
91
142
195
239
259
247
202
129
42
-43
-113
-159
-180
-180
-163
-138
-109
-81
-56
-35
-19
-8
0
4
7
8
8
8
7
7
7
7
7
9
11
13
16
19
21
22
23
23
24
25
26
29
33
38
44
50
56
61
66
70
73
77
79
80
80
79
78
75
71
64
54
41
26
8
-11
-31
-52
-71
-89
-104
-115
-123
-127
-128
-126
-122
-116
-109
-102
-95
-88
-81
-73
-66
-59
-52
-46
-40
-35
-31
-28
-25
-23
-21
-19
-15
-11
-7
-3
0
2
4
4
3
3
1
-1
-2
-2
-2
-2
-2
-2
-2
-2
-2
-1
1
3
6
9
11
13
13
13
12
11
10
8
7
5
4
2
0
-1
-2
-3
-3
-3
-3
-3
-3
-3
-3
-2
0
1
2
2
2
2
2
1
2
2
2
2
2
2
3
3
4
5
7
8
10
13
16
21
25
29
32
33
32
32
31
30
29
26
21
14
4
-7
-17
-26
-32
-35
-36
-35
-34
-31
-29
-26
-23
-20
-18
-15
-13
-12
-11
-11
-10
-7
2
20
51
94
146
199
239
256
241
194
121
35
-48
-116
-160
-179
-176
-157
-129
-98
-68
-42
-22
-7
4
11
15
17
17
17
17
18
20
24
28
32
35
37
38
37
35
33
32
31
32
34
37
40
43
47
50
53
57
62
66
70
74
78
82
84
85
85
84
81
77
71
64
55
43
30
13
-5
-24
-44
-64
-81
-97
-109
-119
-124
-127
-127
-124
-119
-113
-105
-97
-89
-82
-75
-69
-63
-56
-50
-43
-37
-33
-30
-27
-25
-23
-22
-23
-24
-25
-25
-25
-23
-20
-18
-15
-13
-11
-9
-7
-6
-4
-3
-2
-1
0
1
2
3
4
5
6
6
7
7
8
8
8
8
8
8
8
9
10
11
11
10
8
6
3
1
-1
-1
-1
0
1
2
2
2
2
3
3
4
5
6
7
8
8
9
9
10
12
15
19
22
24
27
29
31
33
33
32
28
22
13
3
-7
-17
-25
-31
-34
-34
-32
-28
-25
-21
-17
-13
-10
-7
-6
-5
-4
-4
-3
0
6
16
35
64
104
151
196
228
238
216
166
94
14
-62
-121
-159
-175
-171
-153
-127
-99
-71
-48
-29
-15
-4
3
9
12
14
16
17
18
20
22
25
27
28
28
28
27
27
27
29
31
34
37
39
40
42
44
46
49
52
56
61
65
68
71
74
75
75
74
73
70
67
62
56
48
37
23
7
-12
-32
-51
-70
-85
-97
-106
-112
-115
-116
-114
-110
-103
-96
-88
-80
-73
-66
-60
-53
-47
-42
-37
-33
-29
-27
-25
-24
-23
-22
-20
-18
-15
-13
-11
-10
-9
-8
-6
-4
-2
0
1
1
1
1
1
1
2
2
2
1
1
0
-1
-1
-1
0
0
0
0
1
1
3
4
6
8
9
9
8
7
5
4
2
1
1
0
-1
-1
-2
-3
-2
-2
-1
0
1
1
1
1
-1
-2
-3
-4
-5
-6
-6
-6
-4
-1
2
5
8
10
12
13
13
13
15
17
20
24
27
30
31
32
32
30
28
24
19
11
3
-7
-15
-22
-26
-29
-29
-28
-27
-25
-23
-20
-19
-17
-16
-16
-15
-14
-13
-12
-10
-7
0
12
35
68
114
166
216
250
259
234
179
101
16
-62
-121
-157
-170
-164
-146
-122
-96
-71
-50
-34
-22
-14
-9
-5
-4
-3
-2
-1
1
3
5
8
10
13
16
18
19
19
18
19
20
23
26
30
34
38
42
45
49
52
56
60
64
68
72
76
79
82
84
85
86
86
83
78
70
58
42
23
2
-21
-45
-67
-88
-104
-116
-124
-127
-127
-124
-119
-113
-105
-96
-86
-77
-67
-59
-52
-46
-41
-37
-33
-30
-26
-24
-22
-20
-19
-18
-17
-15
-14
-13
-12
-11
-10
-8
-7
-4
-2
0
2
2
2
2
2
2
3
5
6
6
7
7
6
6
6
6
5
5
5
6
7
8
9
9
7
5
3
0
-1
-2
-2
-2
-1
-1
-1
-1
-1
0
0
0
1
1
2
2
2
2
3
3
4
5
6
6
6
6
5
5
5
5
6
8
10
12
15
18
21
25
30
34
37
39
40
38
36
32
27
21
14
7
-2
-9
-17
-23
-27
-30
-31
-30
-27
-24
-21
-18
-15
-12
-10
-8
-6
-4
-3
-3
-2
-1
3
14
35
70
118
174
227
263
270
240
177
92
-1
-83
-144
-179
-189
-179
-156
-127
-97
-68
-44
-24
-9
1
7
11
13
14
14
16
17
18
19
20
21
21
21
22
23
24
26
28
29
31
34
37
41
45
49
53
56
58
60
62
64
67
69
72
75
78
80
81
82
80
77
71
63
52
38
21
2
-19
-40
-62
-81
-96
-108
-116
-120
-121
-120
-116
-110
-104
-98
-91
-84
-78
-71
-65
-59
-53
-48
-42
-37
-32
-28
-24
-21
-18
-15
-12
-10
-8
-6
-4
-2
0
0
1
0
-1
-1
-2
-2
-1
0
1
2
3
3
4
4
5
6
7
8
9
9
9
9
7
6
3
1
-2
-5
-7
-8
-9
-9
-9
-9
-9
-9
-8
-8
-7
-6
-5
-4
-4
-4
-3
-2
-2
-1
-1
-2
-2
-3
-4
-5
-5
-5
-4
-3
-2
-1
0
0
0
1
2
4
6
9
12
15
18
22
26
31
36
39
42
42
41
38
34
29
23
17
9
0
-9
-18
-25
-30
-32
-33
-32
-30
-28
-26
-24
-22
-20
-19
-17
-15
-12
-10
-7
-4
1
9
25
51
90
140
193
239
264
260
220
151
63
-27
-104
-159
-187
-191
-175
-149
-117
-85
-55
-30
-9
6
17
23
26
26
26
25
25
25
25
25
25
25
25
25
26
27
28
30
32
35
38
40
42
43
44
44
43
43
45
47
50
54
57
60
62
64
66
67
68
67
64
59
52
42
29
13
-5
-25
-45
-63
-79
-92
-102
-108
-111
-113
-113
-111
-108
-104
-99
-93
-86
-80
-74
-68
-63
-57
-52
-47
-41
-36
-32
-28
-25
-22
-20
-18
-17
-17
-16
-16
-15
-14
-13
-12
-11
-9
-6
-4
-1
1
4
6
7
9
10
11
12
13
13
12
11
10
8
7
6
6
5
4
3
3
3
3
4
5
6
7
7
7
7
6
5
4
3
3
2
2
2
2
3
4
5
7
10
12
16
18
21
22
23
24
26
28
30
32
34
34
34
31
28
24
20
15
9
2
-5
-13
-20
-26
-31
-33
-33
-31
-28
-25
-22
-19
-16
-13
-10
-7
-5
-3
-2
-1
1
3
8
19
39
69
111
157
199
226
226
195
135
57
-26
-101
-155
-185
-190
-175
-147
-111
-75
-40
-12
10
26
36
41
43
44
44
43
42
41
40
39
38
37
36
36
36
37
38
39
41
43
44
45
46
47
50
53
57
61
65
69
72
76
80
83
86
89
92
93
94
93
90
85
77
66
52
35
16
-5
-27
-49
-70
-89
-104
-116
-123
-126
-126
-123
-118
-111
-103
-94
-85
-75
-66
-58
-52
-47
-43
-39
-35
-32
-28
-25
-23
-21
-19
-17
-14
-12
-10
-7
-6
-4
-3
-2
-2
-1
-1
-1
0
0
1
1
1
1
1
2
2
2
2
1
0
-1
-3
-4
-5
-5
-6
-6
-7
-8
-9
-9
-10
-10
-10
-11
-11
-11
-12
-12
-11
-10
-8
-6
-4
-2
-1
0
1
2
4
5
5
5
4
5
6
7
9
11
13
15
18
21
24
28
30
32
31
30
28
26
22
17
10
3
-5
-12
-19
-24
-28
-30
-31
-32
-32
-32
-30
-27
-24
-19
-14
-11
-8
-6
-6
-5
-4
-3
3
16
39
76
125
180
229
260
263
231
168
84
-6
-85
-144
-177
-185
-175
-152
-122
-91
-63
-38
-19
-5
5
11
16
18
20
22
22
23
23
23
24
25
26
27
28
29
30
32
35
37
39
41
43
46
48
50
51
53
54
56
60
64
68
72
77
81
83
85
85
83
80
76
69
61
50
36
19
-1
-22
-44
-64
-82
-97
-108
-115
-119
-120
-118
-113
-107
-100
-92
-84
-77
-69
-61
-54
-46
-40
-34
-30
-26
-24
-22
-21
-20
-19
-17
-15
-14
-12
-11
-9
-8
-6
-4
-2
0
1
1
-1
-2
-3
-3
-2
-1
1
3
4
4
4
4
3
2
1
1
0
0
0
-1
-2
-3
-3
-3
-4
-4
-4
-4
-4
-5
-7
-8
-10
-12
-12
-12
-11
-11
-11
-11
-12
-13
-14
-15
-16
-18
-19
-20
-21
-22
-23
-23
-24
-24
-24
-23
-21
-19
-16
-11
-6
0
7
12
17
20
20
19
17
13
8
2
-5
-14
-24
-35
-45
-53
-60
-64
-65
-65
-63
-59
-55
-50
-45
-40
-36
-32
-29
-26
-23
-21
-18
-15
-8
6
31
68
118
173
222
252
252
216
150
65
-23
-99
0
0
-152
-180
-185
-171
-147
-118
-89
-62
-39
-21
-6
6
15
21
25
27
27
27
26
26
25
25
24
24
23
22
21
19
18
18
20
24
28
33
37
40
43
46
48
50
53
57
62
66
71
75
78
80
81
81
80
77
72
64
54
41
25
7
-14
-35
-56
-76
-93
-106
-116
-122
-125
-125
-123
-119
-113
-106
-98
-89
-80
-71
-62
-54
-46
-40
-34
-29
-24
-20
-17
-14
-12
-11
-9
-8
-8
-7
-7
-7
-6
-6
-5
-4
-2
0
2
4
6
7
8
9
10
11
11
11
11
11
11
11
11
10
10
10
10
11
12
12
13
12
12
11
10
10
9
10
10
10
10
11
11
11
11
11
10
10
9
7
6
4
3
3
3
4
6
7
7
8
8
8
8
9
9
11
15
19
25
30
34
37
39
39
38
35
30
23
14
4
-7
-17
-26
-34
-39
-42
-44
-45
-44
-42
-39
-36
-34
-31
-29
-27
-24
-22
-20
-18
-15
-11
-4
10
34
71
119
173
222
253
255
222
158
73
-15
-93
-150
-181
-188
-176
-153
-124
-94
-67
-44
-25
-12
-3
4
8
12
15
17
19
20
20
21
23
24
25
25
25
24
22
21
20
21
22
24
26
29
32
35
38
42
45
49
53
57
61
64
67
69
71
73
75
76
76
74
69
60
47
30
10
-11
-33
-53
-71
-87
-101
-111
-118
-122
-122
-120
-115
-108
-100
-93
-85
-79
-72
-65
-58
-52
-45
-39
-33
-28
-23
-19
-17
-14
-13
-12
-12
-11
-11
-11
-11
-10
-10
-10
-11
-12
-14
-15
-16
-15
-14
-13
-12
-11
-11
-11
-11
-11
-11
-12
-14
-15
-17
-18
-19
-20
-22
-23
-26
-28
-31
-33
-35
-36
-37
-38
-39
-41
-43
-45
-46
-47
-47
-46
-45
-44
-43
-42
-41
-39
-37
-34
-31
-28
-27
-25
-23
-21
-19
-15
-11
-8
-4
-1
2
4
6
8
10
13
17
19
19
18
16
13
10
6
1
-6
-13
-21
-29
-36
-42
-46
-48
-48
-47
-45
-41
-37
-33
-29
-25
-22
-18
-15
-13
-10
-8
-6
-2
7
24
53
96
149
203
247
267
255
208
133
44
-43
-114
-161
-183
-182
-164
-138
-107
-77
-50
-27
-9
4
14
21
25
28
30
32
32
33
33
33
33
33
34
35
37
38
39
40
41
42
43
44
46
47
49
50
52
55
60
64
68
72
75
76
77
76
75
73
71
68
65
61
54
44
30
14
-6
-27
-49
-70
-89
-107
-121
-132
-139
-141
-140
-135
-128
-119
-109
-99
-89
-81
-74
-68
-64
-60
-56
-52
-48
-43
-40
-37
-34
-32
-30
-28
-26
-25
-24
-23
-22
-22
-22
-21
-20
-20
-19
-18
-16
-14
-11
-8
-5
-3
-1
0
1
2
2
2
2
2
2
2
1
0
-1
0
1
2
3
4
4
4
4
4
4
4
4
2
1
-1
-3
-4
-5
-5
-5
-5
-5
-5
-5
-5
-5
-5
-3
-1
2
5
8
10
12
14
16
18
22
26
30
33
34
34
31
26
20
12
4
-4
-11
-19
-25
-31
-35
-39
-40
-41
-40
-38
-35
-32
-29
-26
-22
-19
-17
-15
-14
-14
-13
-11
-7
1
17
41
76
117
160
193
205
190
146
78
-1
-79
-144
-187
-205
-201
-180
-148
-111
-76
-45
-21
-3
9
15
18
18
18
16
15
14
13
12
11
11
10
10
11
13
15
18
21
25
28
32
35
37
38
40
42
46
50
55
62
68
74
79
82
85
87
88
87
86
84
81
76
68
57
43
25
5
-18
-41
-63
-82
-99
-111
-121
-126
-128
-128
-125
-120
-114
-107
-98
-90
-80
-71
-63
-56
-49
-43
-38
-33
-29
-26
-23
-22
-21
-20
-20
-19
-18
-16
-14
-13
-12
-11
-10
-9
-8
-6
-4
-2
-1
0
1
1
2
4
6
8
10
11
11
11
10
10
9
8
7
7
7
8
9
10
11
12
11
11
10
10
10
11
11
11
10
9
9
9
10
11
12
12
13
14
16
18
21
23
24
25
26
28
31
33
36
38
38
38
36
32
26
20
13
5
-3
-10
-17
-22
-25
-26
-25
-23
-21
-18
-14
-11
-8
-6
-4
-2
1
3
6
8
10
12
18
28
48
79
120
166
209
236
239
211
155
80
-1
-75
-130
-163
-171
-160
-136
-104
-71
-39
-11
11
28
39
45
47
47
45
43
40
38
36
34
32
31
31
32
33
35
36
38
39
41
42
45
48
51
55
58
61
64
65
68
70
74
78
81
84
87
89
90
91
91
89
85
78
68
54
37
17
-4
-26
-47
-67
-85
-100
-112
-120
-124
-124
-121
-115
-108
-99
-91
-83
-76
-69
-63
-56
-51
-45
-40
-35
-30
-26
-22
-19
-16
-15
-15
-15
-15
-14
-13
-12
-10
-8
-7
-6
-5
-4
-3
-1
1
2
4
5
6
6
7
7
7
7
6
6
5
4
3
3
3
2
2
2
1
0
-1
-2
-3
-4
-4
-5
-4
-3
-1
1
3
5
5
5
4
3
2
2
2
2
2
1
1
0
1
2
4
7
10
12
14
16
17
18
21
25
29
32
34
35
34
31
27
23
18
12
5
-2
-10
-17
-23
-27
-30
-31
-30
-28
-26
-24
-22
-21
-19
-17
-14
-12
-10
-9
-7
-4
1
8
21
42
73
114
162
207
238
244
219
164
87
3
-75
-135
-172
-184
-176
-153
-124
-92
-62
-36
-16
-1
10
18
23
25
27
27
28
29
30
31
31
31
30
30
29
29
29
30
32
33
35
37
39
41
44
48
51
54
57
61
64
67
71
74
77
79
81
82
82
81
78
73
66
56
43
27
8
-13
-34
-56
-76
-93
-107
-117
-124
-128
-128
-125
-120
-114
-106
-99
-91
-83
-76
-69
-62
-56
-52
-47
-42
-38
-34
-30
-27
-24
-22
-20
-19
-18
-16
-14
-11
-9
-7
-6
-5
-6
-6
-6
-6
-5
-5
-4
-3
-1
1
3
4
6
8
9
10
10
10
10
11
11
10
9
8
7
6
6
5
4
3
2
1
0
-1
-3
-4
-5
-6
-7
-7
-6
-4
-1
2
5
7
8
9
9
9
8
8
8
8
8
8
8
9
10
12
16
20
24
27
30
31
32
32
30
26
20
12
4
-6
-15
-22
-26
-28
-28
-27
-25
-24
-23
-22
-21
-21
-20
-20
-19
-19
-19
-18
-16
-13
-7
6
29
64
109
157
197
218
211
172
108
30
-49
-115
-161
-184
-187
-175
-154
-129
-105
-82
-62
-46
-33
-23
-17
-13
-11
-10
-9
-8
-6
-4
-2
0
2
3
3
2
1
0
-1
1
3
7
11
14
18
21
23
26
30
35
39
44
48
51
55
58
61
63
63
63
62
59
55
50
42
32
18
2
-16
-35
-55
-73
-90
-102
-111
-114
-114
-111
-107
-100
-94
-86
-78
-70
-62
-54
-47
-40
-35
-31
-28
-25
-22
-19
-16
-13
-10
-7
-5
-2
1
4
5
6
6
7
7
7
8
8
8
7
6
6
6
7
8
11
12
14
15
16
15
12
9
6
2
-1
-2
-2
-2
-1
-1
0
0
1
2
4
5
7
8
8
6
3
0
-4
-7
-10
-12
-15
-17
-18
-20
-20
-21
-21
-20
-20
-19
-19
-19
-18
-17
-16
-16
-17
-18
-20
-21
-21
-20
-18
-16
-14
-12
-10
-9
-6
-3
1
4
7
9
9
9
7
5
1
-4
-10
-17
-23
-28
-33
-37
-40
-42
-43
-42
-40
-37
-32
-26
-20
-13
-7
-3
-1
0
-1
-2
1
10
28
59
102
154
204
242
254
234
183
109
26
-51
-111
-149
-164
-160
-144
-120
-94
-68
-45
-25
-11
-2
3
5
6
6
7
8
11
14
18
22
25
28
31
32
32
32
32
32
33
35
37
40
43
46
50
54
58
61
64
67
70
73
76
78
79
80
81
81
81
80
78
73
66
56
42
27
9
-9
-28
-46
-63
-78
-92
-102
-110
-115
-116
-115
-110
-104
-96
-88
-80
-71
-63
-56
-49
-42
-36
-32
-28
-26
-24
-23
-23
-22
-22
-23
-23
-22
-22
-21
-20
-18
-15
-13
-11
-9
-10
-11
-14
-17
-19
-18
-16
-12
-9
-7
-5
-4
-3
-3
-3
-3
-3
-4
-4
-4
-4
-4
-4
-5
-6
-7
-8
-9
-9
-10
-11
-12
-13
-14
-14
-13
-13
-12
-11
-10
-10
-9
-10
-11
-11
-11
-11
-9
-8
-7
-7
-8
-10
-11
-12
-13
-14
-14
-13
-12
-10
-7
-3
0
3
6
9
12
15
19
23
26
29
32
33
35
36
35
33
29
23
16
8
-1
-8
-16
-22
-26
-30
-32
-33
-33
-32
-29
-26
-22
-18
-15
-12
-9
-8
-6
-5
-4
-2
2
12
32
62
105
154
202
237
246
224
171
95
9
-70
-132
-168
-180
-170
-145
-113
-79
-46
-19
4
20
31
38
41
41
40
38
36
34
32
31
30
30
30
30
30
29
28
27
26
26
25
25
26
29
33
38
45
51
58
64
69
72
74
74
73
71
68
66
64
61
58
53
45
35
21
3
-18
-41
-65
-88
-110
-128
-144
-157
-167
-174
-178
-179
-177
-174
-169
-162
-154
-146
-139
-133
-128
-124
-120
-117
-113
-110
-106
-102
-99
-97
-96
-95
-93
-91
-89
-87
-84
-82
-80
-78
-76
-73
-71
-67
-63
-60
-56
-54
-51
-48
-43
-39
-33
-28
-23
-18
-14
-11
-8
-6
-4
-3
-1
2
4
5
6
5
5
6
7
8
10
11
11
10
10
9
10
11
13
17
20
24
27
30
31
31
29
27
26
25
26
27
27
27
26
25
23
22
21
22
23
24
26
29
31
32
33
33
35
37
40
44
48
51
52
52
49
45
38
31
23
15
7
0
-5
-9
-10
-10
-8
-6
-3
0
2
4
5
5
7
8
9
10
11
13
17
25
42
71
112
163
215
255
272
258
212
141
58
-23
-89
-134
-155
-156
-144
-122
-97
-73
-51
-32
-18
-6
3
11
18
23
26
28
29
29
29
30
30
30
29
29
28
29
31
33
37
40
42
45
47
49
51
53
57
61
66
71
76
81
85
87
90
90
90
89
87
83
79
72
64
54
42
27
10
-8
-28
-48
-67
-85
-99
-110
-116
-118
-117
-113
-108
-102
-95
-89
-82
-76
-69
-63
-58
-53
-48
-42
-37
-33
-28
-25
-22
-20
-18
-16
-13
-11
-8
-5
-1
2
4
6
7
7
7
6
6
5
4
5
6
7
10
13
18
22
25
29
33
36
40
43
45
45
45
43
41
39
37
35
34
32
30
27
23
17
11
3
-4
-12
-20
-26
-31
-35
-39
-43
-48
-52
-57
-61
-64
-66
-66
-65
-64
-63
-61
-60
-59
-58
-57
-56
-55
-54
-53
-52
-50
-48
-45
-42
-39
-36
-32
-27
-20
-12
-4
4
10
13
16
18
19
20
20
18
13
5
-4
-14
-21
-26
-27
-26
-25
-23
-21
-19
-17
-16
-14
-14
-14
-15
-16
-17
-17
-16
-13
-10
-2
12
39
79
133
192
245
276
275
238
169
80
-10
-88
-143
-171
-176
-162
-137
-108
-79
-53
-31
-14
-2
7
12
16
17
18
19
20
22
23
25
26
28
30
32
34
36
37
37
38
39
40
43
46
49
52
55
57
60
62
64
66
68
71
75
79
83
85
87
87
85
82
77
70
63
53
40
25
7
-11
-30
-48
-65
-80
-93
-102
-108
-111
-112
-111
-108
-104
-97
-90
-82
-74
-66
-57
-49
-42
-35
-29
-24
-19
-16
-13
-11
-10
-9
-9
-10
-11
-11
-12
-13
-13
-13
-13
-12
-11
-10
-10
-10
-11
-11
-10
-9
-7
-5
-3
-2
-1
0
1
2
2
2
2
2
2
3
3
4
3
2
1
-1
-2
-2
-2
-2
-2
-2
-3
-5
-6
-6
-6
-5
-5
-4
-3
-2
-1
-2
-3
-3
-3
-1
2
6
9
11
13
13
13
13
13
13
13
14
15
18
20
23
25
26
27
29
32
34
37
38
39
40
40
39
38
36
32
25
16
6
-4
-14
-21
-27
-30
-30
-29
-27
-25
-23
-22
-20
-18
-16
-12
-8
-4
1
5
8
13
21
35
58
93
135
179
211
223
205
159
89
8
-69
-130
-168
-180
-170
-145
-113
-78
-45
-17
6
22
32
38
39
39
37
34
31
28
26
26
27
28
30
32
33
33
34
33
32
31
31
32
33
35
38
42
46
49
52
54
57
61
64
68
71
73
75
76
76
76
75
72
69
62
53
39
23
5
-13
-32
-50
-66
-81
-95
-105
-113
-117
-118
-116
-112
-105
-98
-90
-82
-75
-69
-63
-56
-50
-44
-39
-33
-28
-24
-20
-17
-13
-9
-6
-3
-1
1
3
3
4
4
5
5
5
5
5
5
5
6
6
6
6
6
6
6
5
5
4
4
3
3
3
4
5
7
7
8
8
8
7
7
6
6
5
4
2
1
0
-1
-2
-2
-2
-2
-1
-1
-1
-1
-1
-1
0
1
2
3
4
4
3
3
3
3
5
7
10
12
15
17
19
21
25
29
33
35
36
35
33
31
28
25
20
14
6
-4
-15
-25
-32
-36
-38
-36
-34
-32
-29
-27
-25
-23
-21
-19
-17
-16
-14
-12
-10
-7
-3
3
16
38
73
120
172
218
246
244
209
144
61
-25
-100
-153
-181
-186
-172
-148
-118
-88
-61
-39
-21
-8
2
10
17
22
26
28
30
31
32
33
33
34
34
33
0
0
32
31
31
32
34
36
37
38
39
39
40
41
43
45
48
50
53
55
57
60
62
65
68
71
73
74
73
69
63
54
42
29
13
-5
-23
-41
-60
-76
-91
-104
-113
-118
-120
-119
-116
-111
-105
-98
-91
-83
-76
-69
-63
-58
-53
-48
-42
-37
-33
-29
-25
-23
-21
-20
-19
-17
-15
-13
-11
-8
-6
-5
-4
-3
-2
-1
0
1
1
2
2
3
4
5
5
6
5
4
2
0
-1
-2
-3
-4
-5
-6
-7
-8
-9
-9
-9
-8
-9
-9
-9
-9
-8
-8
-8
-9
-9
-10
-10
-10
-10
-10
-11
-12
-14
-17
-19
-20
-21
-22
-22
-23
-23
-23
-22
-22
-21
-19
-17
-15
-12
-9
-6
-2
2
6
10
13
16
17
18
16
13
7
-2
-12
-23
-34
-43
-50
-55
-57
-57
-54
-50
-45
-39
-33
-29
-25
-24
-22
-21
-20
-19
-17
-14
-7
5
28
63
111
167
220
257
266
240
181
99
10
-70
-130
-165
-176
-167
-146
-118
-89
-61
-37
-19
-5
5
11
16
19
21
23
26
29
32
33
33
33
32
31
31
32
34
37
40
43
45
46
48
49
50
52
53
55
58
61
64
68
72
75
78
81
83
85
86
86
84
81
75
68
58
46
30
11
-9
-29
-49
-67
-82
-95
-105
-111
-115
-116
-116
-113
-108
-102
-94
-86
-78
-69
-62
-54
-48
-42
-37
-33
-29
-27
-25
-23
-21
-18
-16
-13
-11
-10
-9
-10
-10
-10
-9
-9
-8
-8
-7
-7
-6
-6
-5
-5
-5
-5
-5
-4
-3
-2
-1
0
1
2
3
3
4
5
6
6
6
6
6
5
4
3
1
0
-1
-1
-2
-1
-1
-2
-2
-3
-4
-4
-3
-3
-3
-3
-3
-3
-3
-3
-1
1
4
7
12
16
20
24
27
31
35
40
45
49
50
50
47
44
39
33
25
16
6
-5
-15
-24
-31
-37
-40
-41
-41
-40
-37
-35
-31
-27
-23
-19
-14
-11
-8
-5
-4
-2
3
15
38
76
126
182
231
261
260
224
158
75
-9
-80
-129
-154
-157
-143
-120
-91
-63
-37
-16
-1
10
17
20
21
21
21
20
19
20
20
22
23
24
25
26
28
30
32
35
38
39
40
41
41
41
41
43
45
47
50
52
55
58
61
63
66
68
70
72
72
72
70
66
60
50
37
20
0
-22
-45
-68
-89
-107
-122
-135
-143
-148
-150
-148
-144
-137
-129
-120
-110
-100
-92
-83
-75
-67
-61
-55
-50
-46
-42
-39
-36
-33
-30
-27
-24
-21
-19
-18
-16
-13
-10
-7
-5
-3
-1
-1
-2
-2
-3
-3
-3
-3
-3
-4
-5
-7
-9
-12
-14
-16
-16
-16
-15
-14
-14
-14
-15
-15
-15
-16
-16
-17
-17
-18
-19
-20
-22
-23
-25
-26
-27
-28
-29
-29
-28
-26
-23
-19
-15
-10
-6
-2
3
8
13
18
21
24
24
24
22
18
13
7
-1
-10
-20
-28
-35
-40
-43
-45
-44
-43
-41
-38
-36
-33
-31
-28
-26
-23
-20
-16
-13
-10
-8
-5
2
15
39
75
120
165
201
214
198
151
79
-4
-84
-148
-188
-203
-194
-169
-134
-96
-60
-29
-5
13
26
33
36
37
37
36
35
34
33
32
32
32
32
32
33
33
34
34
34
35
36
38
40
43
46
48
50
52
54
57
60
62
64
66
69
71
73
75
75
74
72
68
64
57
48
35
20
2
-18
-39
-60
-80
-97
-112
-122
-129
-132
-132
-128
-123
-115
-107
-99
-91
-83
-76
-69
-63
-57
-52
-46
-41
-36
-31
-27
-23
-19
-17
-14
-12
-11
-9
-7
-4
-1
2
4
5
6
6
7
7
8
8
9
9
10
10
10
9
8
6
4
2
-1
-3
-5
-5
-6
-5
-5
-5
-5
-5
-6
-7
-8
-8
-8
-7
-6
-4
-3
-2
0
2
4
5
7
7
8
10
12
17
21
26
30
32
32
31
28
24
18
11
3
-6
-15
-23
-31
-37
-41
-43
-45
-44
-42
-39
-35
-32
-28
-26
-25
-24
-22
-21
-19
-16
-13
-7
3
19
45
82
127
172
206
217
198
149
75
-10
-91
-155
-194
-207
-196
-169
-131
-91
-51
-17
11
31
43
49
51
50
48
45
42
40
39
37
36
35
35
36
38
40
42
44
46
47
47
48
48
50
52
56
59
63
66
70
73
76
79
81
83
84
86
86
87
86
84
79
72
62
48
32
12
-9
-31
-53
-75
-94
-110
-123
-132
-137
-138
-135
-130
-123
-116
-108
-100
-92
-84
-76
-68
-61
-55
-49
-44
-39
-34
-30
-26
-24
-22
-20
-19
-17
-15
-13
-11
-9
-8
-7
-5
-4
-3
-2
-2
-1
0
1
3
5
7
9
10
10
10
9
8
7
6
5
5
4
3
2
1
-1
-2
-4
-5
-6
-6
-6
-5
-3
-1
1
4
7
11
14
18
20
23
25
27
29
31
31
31
30
28
24
20
15
9
2
-6
-14
-22
-30
-35
-39
-41
-41
-40
-38
-36
-33
-30
-26
-22
-18
-14
-11
-8
-6
-5
-4
-2
4
17
40
77
125
178
225
253
252
217
153
70
-16
-91
-144
-172
-177
-164
-141
-113
-86
-61
-40
-23
-10
0
7
11
14
16
16
17
16
17
17
18
20
21
22
23
24
25
26
29
32
35
37
40
42
45
49
52
54
56
57
57
59
61
64
68
71
74
76
77
76
73
68
60
49
35
19
0
-19
-39
-58
-75
-90
-102
-112
-119
-123
-124
-123
-119
-112
-104
-95
-85
-76
-67
-59
-53
-47
-43
-39
-37
-34
-32
-30
-28
-25
-23
-21
-19
-17
-17
-16
-15
-15
-14
-13
-12
-12
-12
-12
-12
-11
-10
-9
-7
-6
-6
-5
-5
-4
-4
-4
-4
-5
-6
-7
-8
-10
-11
-12
-13
-14
-13
-12
-11
-11
-11
-12
-13
-15
-16
-16
-16
-15
-15
-14
-13
-11
-9
-7
-5
-2
1
4
8
12
16
21
25
30
32
33
32
29
26
22
17
11
3
-5
-14
-23
-31
-36
-39
-40
-40
-39
-36
-33
-29
-25
-22
-19
-16
-14
-11
-9
-7
-4
-1
6
20
45
83
132
188
238
271
274
242
179
94
3
-78
-138
-172
-182
-172
-151
-123
-95
-69
-46
-28
-12
0
10
17
21
23
23
22
21
20
20
20
20
21
22
23
24
26
28
30
32
34
35
36
38
41
44
48
52
56
60
63
67
71
75
78
81
83
83
83
81
78
72
64
54
40
24
6
-15
-36
-56
-75
-91
-103
-111
-116
-117
-115
-111
-107
-101
-95
-89
-83
-76
-70
-63
-56
-50
-43
-38
-33
-29
-26
-23
-21
-19
-17
-15
-13
-12
-10
-9
-8
-7
-7
-7
-7
-7
-6
-5
-4
-3
-2
-1
0
1
3
5
6
6
6
4
3
1
0
-1
-2
-3
-4
-5
-7
-8
-8
-8
-8
-7
-7
-7
-7
-6
-6
-5
-4
-4
-4
-5
-6
-8
-9
-10
-10
-9
-8
-6
-4
-2
1
3
4
6
8
11
16
21
26
32
36
38
39
38
36
33
28
23
16
8
-1
-9
-18
-24
-29
-32
-33
-32
-31
-29
-25
-22
-18
-14
-11
-9
-8
-7
-7
-7
-7
-5
3
19
49
94
149
206
252
272
258
209
131
41
-47
-117
-164
-185
-184
-168
-142
-112
-82
-54
-32
-14
-2
7
12
15
17
18
18
18
18
18
18
17
17
17
16
17
19
21
24
27
30
33
36
38
41
45
48
51
54
57
60
63
65
68
70
71
73
73
73
72
71
67
62
54
42
27
10
-9
-30
-50
-70
-87
-101
-111
-119
-123
-124
-124
-122
-117
-112
-106
-99
-92
-84
-78
-71
-64
-58
-53
-49
-45
-41
-37
-34
-31
-28
-25
-24
-22
-21
-21
-20
-19
-17
-14
-11
-7
-3
-1
1
2
2
3
3
4
4
4
5
5
6
7
7
8
8
7
6
4
2
1
0
0
1
2
3
4
3
2
2
2
2
2
2
1
1
0
0
0
1
1
2
3
5
6
7
8
8
8
8
8
8
9
10
12
13
15
16
18
21
25
29
33
35
36
36
34
31
26
21
14
5
-3
-11
-17
-21
-24
-25
-25
-25
-24
-23
-22
-22
-21
-21
-20
-19
-17
-14
-10
-7
-4
0
8
24
51
92
143
197
242
264
253
207
132
44
-44
-116
-165
-188
-189
-174
-150
-121
-93
-67
-45
-28
-14
-4
3
9
13
16
17
19
20
22
23
23
24
25
26
27
29
31
33
34
36
37
38
40
42
45
48
51
54
57
60
63
66
69
72
76
78
79
79
78
75
71
65
56
45
31
14
-5
-25
-46
-65
-83
-97
-109
-117
-121
-123
-122
-118
-113
-108
-103
-97
-92
-86
-79
-72
-66
-59
-54
-48
-43
-39
-34
-30
-26
-23
-21
-19
-17
-15
-14
-13
-12
-12
-12
-11
-10
-9
-8
-6
-5
-3
-2
0
1
3
3
4
4
5
5
5
5
5
5
5
5
4
4
3
2
1
1
0
0
0
1
1
0
-1
-2
-2
-2
-2
-2
-3
-4
-5
-6
-5
-4
-3
-3
-2
-2
-2
-3
-3
-4
-4
-4
-4
-5
-6
-6
-5
-3
1
4
8
11
13
16
18
22
25
29
32
34
35
35
34
31
25
18
9
-2
-12
-21
-29
-34
-37
-37
-36
-34
-33
-31
-29
-26
-24
-20
-17
-14
-12
-10
-9
-8
-6
-2
9
31
67
117
175
229
267
275
248
186
102
9
-75
-139
-178
-190
-183
-162
-135
-106
-79
-55
-36
-20
-9
-1
4
7
9
10
11
11
11
12
12
13
14
15
16
18
20
21
22
23
24
26
28
32
35
39
42
46
48
51
53
55
58
61
64
67
71
73
75
74
72
67
60
50
38
22
5
-15
-36
-56
-76
-93
-108
-119
-126
-130
-130
-129
-125
-121
-115
-109
-101
-94
-86
-77
-69
-63
-57
-52
-48
-44
-40
-35
-30
-25
-21
-18
-16
-14
-12
-11
-10
-9
-8
-7
-6
-5
-4
-3
-2
-1
0
2
3
5
6
7
7
6
5
4
3
1
-1
-3
-5
-7
-8
-8
-7
-6
-6
-6
-6
-7
-8
-8
-7
-7
-7
-6
-7
-6
-6
-6
-5
-4
-3
-3
-3
-3
-3
-3
-3
-3
-3
-3
-3
-3
-2
-2
0
1
3
4
5
6
8
9
12
16
19
23
25
27
27
26
23
18
10
1
-8
-18
-26
-32
-35
-37
-37
-36
-34
-32
-30
-27
-25
-23
-21
-19
-17
-16
-14
-13
-12
-11
-7
1
17
45
84
132
182
221
239
225
179
106
21
-62
-130
-175
-195
-191
-171
-142
-109
-78
-51
-29
-12
-1
8
14
19
22
23
23
23
23
22
22
21
21
21
22
22
22
23
24
25
27
29
32
35
38
41
45
48
51
54
57
60
62
63
64
66
67
67
67
66
63
58
53
45
35
22
7
-10
-29
-48
-67
-84
-100
-112
-122
-127
-129
-129
-125
-120
-113
-105
-97
-89
-81
-74
-67
-60
-54
-49
-43
-39
-35
-31
-28
-25
-23
-20
-18
-15
-13
-11
-10
-8
-7
-6
-5
-5
-4
-4
-3
-3
-3
-3
-3
-2
-2
-1
0
2
3
4
4
4
4
3
2
2
1
1
1
2
3
5
6
7
7
7
7
6
6
7
8
8
9
10
11
12
13
13
12
11
10
9
9
8
8
8
8
8
8
8
7
7
7
8
9
10
11
13
14
16
17
19
21
24
27
31
34
37
39
40
40
38
33
27
18
8
-2
-11
-18
-22
-25
-26
-26
-25
-23
-22
-20
-19
-18
-16
-14
-12
-9
-7
-4
-2
1
6
17
39
74
123
179
231
266
273
245
183
100
9
-73
-135
-172
-186
-179
-160
-134
-105
-78
-53
-33
-17
-5
3
8
11
12
12
12
12
12
12
12
13
14
15
16
17
19
21
24
28
32
35
37
39
40
41
43
45
48
51
56
60
64
68
71
73
75
75
75
73
70
65
58
50
39
25
9
-10
-30
-50
-69
-87
-103
-115
-123
-127
-128
-126
-122
-115
-108
-99
-91
-82
-72
-63
-55
-48
-42
-38
-35
-32
-30
-28
-27
-26
-25
-24
-22
-20
-18
-15
-12
-10
-9
-8
-7
-6
-5
-4
-2
-1
0
2
2
3
3
3
3
2
1
0
0
1
1
2
3
3
3
3
3
3
3
3
1
0
-2
-3
-3
-4
-4
-4
-4
-5
-6
-7
-8
-9
-9
-10
-10
-10
-10
-10
-10
-9
-7
-6
-4
-3
-2
-2
-2
-3
-3
-4
-6
-8
-9
-9
-9
-8
-6
-4
-2
1
4
7
11
16
20
24
28
31
33
33
32
28
22
13
1
-11
-23
-33
-41
-47
-49
-50
-49
-47
-44
-41
-38
-35
-31
-27
-24
-22
-20
-19
-18
-18
-18
-14
-2
22
61
113
171
222
253
254
219
153
67
-22
-100
-157
-188
-196
-186
-164
-137
-109
-83
-61
-43
-29
-18
-9
-2
3
7
10
13
15
17
18
18
19
19
20
20
21
22
23
24
26
28
30
32
34
37
40
43
47
50
54
57
61
65
68
71
73
76
77
77
76
73
69
62
53
40
25
7
-12
-31
-51
-69
-85
-99
-110
-118
-123
-124
-123
-119
-113
-105
-96
-86
-76
-66
-57
-49
-42
-36
-32
-28
-26
-25
-24
-24
-23
-22
-22
-21
-20
-19
-18
-16
-13
-11
-7
-4
-1
2
3
4
4
4
4
5
6
8
9
10
10
10
9
9
9
8
8
8
8
7
6
5
4
3
2
2
2
2
1
1
0
0
-1
-2
-2
-2
-2
-1
-1
-2
-3
-3
-3
-3
-2
-1
-1
-2
-2
-1
0
1
2
3
3
2
1
1
0
0
-1
-1
-1
-1
-1
-1
-1
0
1
2
4
6
8
11
14
18
22
26
29
31
32
31
28
25
20
14
6
-3
-12
-21
-29
-34
-36
-37
-35
-33
-29
-26
-23
-20
-17
-14
-12
-9
-7
-6
-5
-4
0
10
30
63
109
164
219
261
275
255
199
117
26
-60
-126
-168
-184
-180
-161
-136
-107
-80
-56
-36
-21
-10
-1
5
8
11
12
13
14
16
17
18
19
20
22
24
26
28
29
30
30
29
28
27
28
29
32
36
41
46
52
56
60
63
65
67
69
70
71
71
70
69
65
59
51
40
26
10
-7
-26
-46
-65
-84
-99
-112
-122
-128
-130
-130
-127
-122
-115
-108
-99
-91
-82
-75
-67
-60
-54
-48
-44
-40
-36
-34
-31
-28
-25
-21
-18
-16
-13
-12
-11
-11
-11
-11
-11
-10
-8
-6
-4
-2
-1
-1
-2
-2
-1
0
3
5
8
10
11
11
10
9
9
8
8
8
8
8
7
6
5
4
3
2
1
1
1
1
1
2
2
2
1
1
2
2
3
4
5
7
7
7
6
5
4
2
2
1
1
1
1
1
1
1
2
2
2
1
0
-1
-2
-2
-3
-3
-2
0
2
5
7
10
13
17
21
24
28
31
32
33
32
31
28
25
20
14
7
-2
-10
-19
-26
-32
-36
-38
-38
-38
-36
-33
-31
-28
-26
-24
-22
-20
-19
-18
-16
-14
-11
-5
10
36
75
127
183
233
261
258
220
152
65
-23
-99
-152
-180
-184
-171
-148
-120
-92
-66
-45
-27
-14
-4
3
7
10
11
11
11
12
12
12
14
16
18
21
25
28
32
34
36
38
40
41
42
43
45
46
48
50
51
53
55
57
60
63
66
68
70
71
72
71
70
66
59
49
36
21
4
-16
-36
-56
-76
-93
-108
-119
-126
-129
-129
-126
-121
-115
-108
-100
-94
-87
-81
-74
-67
-60
-53
-47
-41
-36
-33
-30
-28
-27
-26
-25
-24
-23
-23
-21
-19
-17
-14
-12
-10
-7
-4
-2
0
2
2
2
2
1
1
1
1
2
3
5
6
8
10
10
10
9
6
3
0
-2
-4
-4
-4
-3
-2
-2
-1
-2
-2
-3
-3
-3
-2
-1
2
4
6
7
7
6
4
2
1
-1
-2
-2
-3
-4
-4
-3
-2
-1
1
2
2
3
4
4
3
3
2
1
1
2
3
4
6
9
12
16
20
25
29
32
33
34
33
31
27
22
14
5
-5
-15
-24
-31
-36
-38
-38
-36
-34
-31
-28
-25
-23
-21
-19
-17
-15
-13
-11
-8
-6
-1
7
24
53
97
151
207
253
275
263
215
139
47
-43
-118
-168
-192
-193
-176
-150
-119
-89
-62
-39
-22
-9
1
9
14
18
21
23
24
24
24
24
24
24
24
26
28
30
31
32
34
35
36
38
39
41
44
47
50
54
57
61
65
68
72
74
76
78
78
78
77
76
73
69
62
53
39
23
3
-19
-41
-62
-81
-97
-110
-119
-125
-128
-128
-126
-123
-117
-111
-104
-96
-88
-81
-74
-67
-62
-57
-53
-49
-45
-40
-34
-29
-23
-19
-14
-11
-9
-8
-7
-7
-7
-7
-7
-6
-6
-5
-4
-3
-2
-2
-2
-1
0
2
5
8
11
14
15
14
13
11
9
6
4
2
2
1
2
2
2
1
0
-2
-4
-6
-8
-10
-11
-10
-9
-8
-8
-7
-8
-8
-9
-10
-10
-9
-7
-6
-4
-3
-2
-2
-1
-1
1
2
3
5
8
11
15
19
23
27
30
33
35
37
37
37
35
32
28
23
16
8
-1
-10
-17
-23
-26
-28
-29
-28
-27
-26
-23
-21
-18
-15
-12
-10
-8
-7
-5
-3
-1
3
9
21
42
73
114
158
195
216
210
175
114
37
-41
-110
-158
-183
-185
-168
-140
-106
-72
-41
-16
4
18
27
33
36
38
39
39
39
40
40
41
40
39
36
33
30
27
26
26
27
29
31
33
35
38
40
43
47
51
56
61
65
70
73
77
79
82
83
84
83
81
77
71
63
52
38
21
2
-20
-42
-64
-83
-99
-112
-121
-127
-129
-130
-127
-123
-118
-111
-104
-95
-87
-79
-70
-63
-55
-49
-44
-39
-34
-29
-24
-19
-16
-13
-11
-10
-9
-8
-7
-6
-6
-5
-5
-4
-3
-2
0
2
4
6
7
10
12
14
15
16
15
13
11
9
7
6
5
4
4
4
5
5
4
4
3
2
1
1
1
1
1
1
2
2
1
-1
-2
-3
-5
-5
-5
-4
-2
0
2
3
3
2
2
2
3
4
6
7
8
9
10
11
12
13
16
18
21
24
25
26
25
24
22
19
16
11
5
-1
-8
-15
-21
-25
-28
-30
-31
-31
-30
-28
-25
-22
-18
-15
-13
-11
-9
-7
-5
-3
0
7
20
43
80
127
179
225
252
250
216
153
73
-9
-79
-130
-157
-164
-154
-134
-109
-83
-59
-38
-21
-8
2
9
15
19
22
24
24
24
23
22
23
24
27
29
31
32
33
34
34
34
34
35
36
38
41
43
46
48
51
54
58
62
66
71
75
78
81
82
81
80
76
71
63
53
39
23
5
-16
-37
-58
-77
-93
-105
-114
-120
-122
-121
-119
-114
-109
-103
-96
-89
-81
-73
-65
-58
-52
-46
-40
-35
-31
-26
-23
-20
-18
-17
-16
-14
-13
-12
-10
-8
-6
-4
-3
-3
-3
-4
-5
-6
-6
-5
-4
-3
-1
0
1
2
2
3
3
3
3
2
2
1
1
1
0
0
0
0
0
2
3
5
7
8
8
7
6
4
3
1
-1
-2
-3
-5
-6
-7
-8
-8
-8
-8
-7
-6
-5
-4
-3
-3
-3
-2
-1
1
3
5
6
7
9
10
11
12
13
14
16
20
24
28
32
34
34
33
32
28
24
19
12
4
-4
-13
-20
-26
-30
-30
-29
-26
-23
-20
-17
-14
-12
-11
-10
-9
-7
-5
-3
-2
1
6
17
38
71
117
170
222
258
268
244
188
109
23
-55
-115
-151
-165
-159
-142
-117
-91
-67
-45
-27
-13
-4
4
9
13
16
19
21
22
23
23
23
23
23
23
23
23
23
23
24
25
27
29
32
35
39
43
48
52
55
57
59
62
64
67
71
76
79
82
84
84
82
78
70
60
47
32
15
-3
-22
-40
-58
-76
-92
-105
-115
-121
-124
-123
-120
-114
-107
-98
-89
-80
-70
-62
-53
-47
-40
-35
-32
-29
-28
-26
-25
-24
-22
-19
-16
-12
-8
-5
-2
-1
-2
-3
-4
-4
-4
-4
-3
-1
1
3
4
6
7
9
10
11
12
13
12
11
10
9
9
8
7
7
6
6
5
5
4
4
4
4
5
6
7
8
9
9
9
9
8
7
7
6
5
4
3
2
0
-1
-1
-1
-1
0
1
1
1
1
2
2
3
4
5
6
8
9
10
11
12
13
15
18
22
26
30
33
36
38
38
38
37
35
32
25
17
7
-3
-13
-22
-28
-32
-33
-33
-32
-30
-27
-24
-22
-19
-17
-16
-14
-12
-11
-10
-9
-8
-3
8
31
67
116
173
226
261
267
237
174
91
2
-77
-136
-169
-178
-167
-145
-116
-88
-62
-40
-24
-11
-1
7
14
19
23
25
26
26
26
26
27
28
29
30
30
30
31
31
32
34
34
35
36
38
40
43
46
50
54
58
62
66
70
73
77
80
82
82
81
79
75
69
62
52
40
25
9
-9
-29
-49
-69
-88
-104
-116
-125
-131
-134
-134
-131
-126
-120
-112
-104
-95
-87
-79
-72
-65
-59
-53
-47
-42
-37
-33
-29
-25
-22
-20
-18
-16
-14
-12
-10
-9
-8
-8
-8
-7
-7
-5
-2
1
3
5
7
8
9
9
9
8
7
6
6
5
5
5
5
6
5
5
3
1
-1
-3
-4
-3
-3
-2
-1
0
0
0
0
0
-1
-1
-2
-3
-4
-4
-4
-4
-4
-4
-4
-4
-4
-4
-4
-3
-2
-1
0
1
2
3
3
2
2
2
3
5
7
9
12
14
17
18
20
23
26
28
30
31
32
31
30
26
21
14
5
-5
-16
-25
-33
-39
-42
-43
-42
-40
-38
-35
-33
-31
-29
-28
-27
-27
-26
-24
-22
-19
-15
-7
7
31
67
116
170
217
245
242
204
136
50
-39
-115
-168
-193
-194
-176
-147
-113
-80
-50
-25
-6
8
18
25
28
30
31
32
32
32
32
32
32
33
34
35
36
36
36
37
38
38
39
40
41
42
43
45
47
49
52
55
59
64
68
72
76
78
79
79
78
76
72
67
60
51
39
23
4
-16
-37
-56
-75
-90
-103
-113
-120
-124
-125
-124
-121
-116
-110
-102
-95
-88
-82
-76
-69
-63
-57
-51
-45
-39
-33
-28
-24
-20
-18
-16
-14
-14
-14
-13
-13
-12
-10
-9
-7
-7
-6
-6
-5
-5
-4
-3
-1
1
3
4
4
4
3
1
0
-1
-2
-1
-1
0
1
1
0
-1
-2
-3
-3
-3
-2
-1
0
1
2
3
3
4
5
6
6
6
5
4
3
2
1
1
2
4
7
11
14
17
20
22
24
28
31
34
36
36
34
30
26
20
13
6
-1
-7
-12
-17
-21
-24
-26
-27
-28
-27
-26
-25
-24
-23
-22
-20
-18
-16
-14
-12
-10
-9
-6
-2
8
26
55
96
144
192
228
240
221
171
97
11
-69
-133
-173
-187
-181
-161
-134
-104
-76
-50
-29
-13
-1
8
13
16
17
17
16
15
14
13
13
12
12
12
11
12
13
14
17
19
22
25
28
32
36
39
42
45
48
50
52
54
56
58
61
62
64
64
64
63
62
59
54
47
36
23
7
-11
-31
-51
-70
-87
-102
-113
-120
-124
-124
-122
-118
-112
-105
-98
-90
-82
-75
-67
-61
-55
-49
-44
-40
-36
-32
-29
-26
-23
-19
-15
-11
-8
-6
-5
-4
-3
-3
-2
-1
0
1
2
3
3
4
4
4
5
4
4
4
4
4
5
6
7
7
8
9
9
9
9
8
7
7
7
7
7
7
7
7
8
9
10
11
12
13
13
12
11
11
10
10
10
10
10
9
7
5
4
3
2
2
3
4
5
7
8
8
8
7
7
8
10
14
18
22
26
28
30
30
29
27
24
18
10
1
-10
-20
-29
-35
-38
-39
-37
-33
-29
-25
-21
-18
-16
-14
-12
-10
-8
-6
-3
-1
2
8
21
44
81
129
183
230
257
254
217
149
64
-24
-99
-152
-178
-181
-167
-141
-111
-81
-54
-32
-16
-4
4
9
12
13
14
14
15
16
17
19
20
21
23
24
26
27
29
30
32
34
35
36
38
39
40
42
45
48
51
55
60
63
67
70
73
76
79
81
82
82
80
75
68
57
43
27
9
-11
-32
-52
-71
-88
-103
-114
-124
-130
-133
-132
-129
-123
-116
-107
-99
-90
-80
-71
-63
-56
-50
-46
-42
-39
-37
-34
-31
-28
-26
-25
-24
-23
-22
-20
-18
-16
-14
-13
-12
-12
-11
-11
-11
-11
-11
-11
-10
-10
-9
-8
-7
-7
-7
-7
-7
-6
-6
-5
-4
-3
-2
-1
-1
-2
-2
-3
-3
-3
-3
-3
-2
-2
-1
-1
-2
-3
-3
-3
-3
-3
-3
-3
-3
-2
0
1
1
1
0
0
-1
0
1
3
6
9
12
16
19
23
26
30
31
32
31
29
26
24
21
17
11
4
-3
-11
-19
-25
-30
-33
-34
-33
-32
-31
-29
-26
-24
-21
-18
-16
-13
-11
-9
-8
-8
-7
-6
1
14
41
81
134
190
239
266
261
220
149
60
-29
-105
-156
-181
-183
-168
-142
-113
-83
-56
-33
-14
-1
9
15
18
19
19
19
20
21
22
23
24
24
24
24
25
25
26
27
28
30
32
35
38
41
43
45
46
48
50
53
56
59
62
65
68
71
73
74
73
71
67
61
53
44
32
18
0
-21
-43
-65
-86
-105
-119
-130
-136
-139
-138
-135
-130
-124
-116
-108
-99
-90
-80
-72
-65
-58
-54
-50
-47
-43
-39
-36
-32
-29
-26
-23
-21
-20
-19
-18
-16
-15
-14
-12
-10
-8
-7
-6
-6
-6
-6
-5
-5
-4
-2
0
3
4
6
6
5
4
2
-1
-3
-4
-5
-5
-5
-5
-5
-4
-4
-4
-4
-4
-5
-5
-4
-3
-2
0
1
2
2
2
2
1
0
-1
-2
-2
-2
-1
-1
-1
-1
-1
0
1
3
6
8
10
13
17
21
27
32
37
39
39
37
33
28
23
17
9
1
-9
-19
-27
-34
-37
-39
-38
-35
-33
-30
-27
-24
-22
-20
-18
-17
-15
-14
-12
-10
-8
-4
3
17
42
81
131
186
234
261
258
220
151
65
-24
-100
-153
-182
-186
-174
-150
-120
-89
-60
-35
-15
-1
9
15
19
21
22
23
23
23
23
23
24
25
27
29
31
33
34
36
37
39
40
42
44
45
47
49
52
55
58
61
65
67
70
73
75
77
78
78
78
77
73
69
61
51
38
22
4
-15
-35
-54
-73
-90
-104
-115
-124
-128
-129
-127
-124
-118
-111
-104
-95
-86
-78
-69
-62
-55
-49
-43
-38
-34
-30
-26
-23
-20
-18
-16
-14
-12
-10
-7
-5
-4
-3
-2
-3
-3
-4
-4
-4
-2
-1
1
2
3
3
3
3
2
2
1
1
0
0
-1
-1
0
0
1
1
1
1
0
0
1
2
3
3
2
1
-1
-2
-3
-4
-5
-5
-5
-6
-6
-6
-6
-6
-6
-5
-3
-1
1
2
3
3
3
2
2
2
4
5
7
9
12
16
20
25
31
36
39
41
40
38
35
31
25
18
9
-1
-10
-20
-28
-34
-39
-41
-41
-40
-37
-34
-30
-27
-25
-23
-22
-21
-19
-17
-14
-11
-9
-6
1
16
42
83
136
191
236
257
246
198
123
33
-55
-127
-175
-197
-196
-178
-151
-119
-88
-61
-38
-21
-8
1
7
9
9
8
6
5
5
5
6
8
9
10
12
14
16
18
21
23
26
29
31
33
34
35
36
38
41
46
51
55
60
64
66
68
69
69
70
71
71
69
65
58
48
34
16
-3
-24
-44
-63
-80
-94
-106
-115
-122
-125
-125
-123
-118
-113
-106
-99
-92
-85
-78
-71
-64
-57
-51
-45
-39
-34
-30
-26
-22
-18
-15
-12
-10
-9
-8
-7
-5
-4
-2
0
2
3
5
5
6
6
6
6
7
8
9
9
9
9
8
8
7
6
6
5
4
3
3
2
2
3
4
5
5
6
6
6
6
5
5
4
3
2
0
-1
-1
-2
-1
-1
-1
-2
-3
-3
-4
-4
-4
-4
-3
-2
-1
1
3
5
7
9
11
13
15
18
21
24
28
32
36
38
38
37
35
31
26
20
13
5
-4
-12
-20
-27
-32
-35
-36
-36
-35
-33
-31
-29
-26
-24
-21
-19
-17
-15
-14
-14
-14
-13
-7
6
30
68
119
175
227
260
263
231
166
79
-12
-92
-151
-184
-192
-181
-158
-130
-100
-73
-50
-32
-18
-7
0
5
7
8
9
9
9
9
11
13
15
18
20
23
24
26
26
27
27
27
28
29
31
34
37
41
45
48
52
56
61
66
71
76
81
84
86
86
85
83
79
71
62
48
32
12
-9
-31
-53
-73
-92
-107
-119
-128
-133
-134
-132
-128
-123
-116
-108
-100
-92
-85
-79
-73
-67
-61
-55
-49
-45
-41
-37
-34
-31
-28
-26
-24
-22
-21
-19
-18
-16
-14
-12
-10
-9
-8
-8
-6
-5
-3
-2
-1
-1
-1
-1
-3
-4
-5
-6
-7
-8
-9
-9
-9
-9
-10
-11
-11
-11
-10
-9
-7
-5
-4
-3
-2
-1
-1
-1
-2
-2
-2
-2
-1
0
1
1
2
2
3
3
4
5
6
7
7
7
7
7
7
7
8
9
10
12
14
15
17
19
22
25
28
32
35
38
40
41
41
40
37
33
28
21
13
4
-6
-15
-23
-30
-35
-38
-39
-39
-37
-33
-29
-25
-21
-17
-13
-10
-7
-5
-4
-3
-1
3
14
36
72
121
178
232
268
275
245
181
95
2
-80
-142
-176
-186
-176
-154
-125
-95
-67
-44
-25
-11
-2
5
9
12
14
16
18
19
19
19
19
20
20
21
21
22
22
22
23
25
26
28
30
32
35
38
41
45
48
52
56
60
64
68
71
74
76
77
77
76
74
71
65
56
44
28
9
-11
-33
-54
-74
-92
-106
-117
-125
-129
-130
-129
-125
-120
-114
-107
-99
-93
-86
-79
-72
-66
-60
-54
-48
-44
-40
-37
-34
-32
-29
-26
-23
-20
-18
-16
-13
-11
-9
-8
-6
-5
-5
-4
-4
-4
-4
-5
-6
-6
-4
-1
3
6
8
9
8
8
7
6
6
5
5
4
3
1
-1
-2
-4
-5
-5
-4
-2
0
1
2
2
1
-1
-3
-3
-3
-2
-1
0
-1
-2
-3
-4
-5
-5
-3
-2
0
2
3
3
3
3
2
1
1
3
5
8
11
14
16
19
21
23
26
28
29
30
29
28
27
25
22
17
10
2
-7
-16
-24
-30
-34
-37
-38
-39
-38
-37
-35
-33
-31
-28
-24
-20
-17
-13
-10
-7
-5
-3
1
13
35
72
122
179
233
269
275
245
183
98
7
-74
-135
-170
-181
-173
-152
-125
-95
-68
-46
-27
-13
-3
5
10
13
14
13
11
10
9
10
11
14
18
21
24
27
29
30
30
31
31
32
33
35
38
41
44
47
50
54
57
62
66
70
74
77
78
79
78
77
74
70
64
56
46
32
16
-2
-23
-45
-66
-85
-101
-113
-122
-126
-128
-127
-124
-118
-111
-103
-95
-87
-79
-71
-63
-56
-50
-43
-38
-32
-27
-23
-19
-16
-14
-12
-10
-9
-7
-6
-5
-4
-3
-2
-1
1
2
4
4
5
5
6
6
7
8
9
10
10
9
9
8
6
5
3
2
2
3
4
4
5
5
4
2
1
0
0
0
1
1
2
2
1
0
-1
-1
0
1
2
3
3
3
3
3
3
2
2
3
2
2
2
2
2
2
3
4
5
5
5
4
3
3
4
6
8
11
15
20
25
30
34
37
39
40
39
37
33
28
20
11
1
-9
-18
-25
-31
-33
-34
-34
-33
-31
-28
-26
-23
-21
-20
-18
-17
-16
-15
-13
-12
-9
-5
5
24
55
101
158
215
260
279
262
208
127
34
-54
-122
-164
-180
-175
-156
-130
-102
-76
-53
-34
-20
-9
-1
4
7
10
12
13
14
15
16
16
17
17
18
19
21
24
27
31
35
38
40
41
42
42
43
45
47
51
55
60
64
69
72
76
78
80
81
82
81
79
76
71
63
53
40
24
6
-15
-37
-58
-78
-95
-109
-121
-128
-132
-132
-130
-125
-119
-112
-105
-97
-89
-79
-70
-62
-54
-49
-45
-41
-39
-37
-35
-33
-31
-27
-24
-21
-18
-15
-14
-13
-12
-11
-10
-8
-6
-4
-2
0
2
3
4
5
6
6
7
6
6
5
4
4
3
2
2
1
1
2
2
3
3
2
1
-1
-2
-2
-2
-1
-2
-2
-2
-1
-1
-1
0
0
-1
-1
-1
0
1
2
4
5
6
6
7
7
7
6
5
5
4
2
1
-1
-2
-2
0
2
5
8
11
14
19
23
28
33
36
38
38
37
35
32
27
21
13
3
-6
-16
-23
-29
-32
-34
-35
-34
-32
-30
-26
-23
-21
-19
-18
-17
-16
-14
-13
-13
-12
-10
-3
14
45
90
146
204
250
271
256
205
127
37
-48
-114
-155
-171
-166
-148
-122
-95
-70
-47
-28
-13
-2
6
12
16
19
22
23
24
25
25
25
26
27
29
31
33
35
36
36
37
37
37
38
39
41
43
46
49
52
55
58
62
65
69
72
75
76
77
76
74
71
68
63
56
47
34
18
-1
-21
-40
-59
-76
-91
-104
-114
-121
-126
-127
-125
-122
-116
-110
-103
-96
-89
-82
-77
-71
-65
-59
-53
-48
-43
-38
-34
-31
-27
-24
-21
-19
-17
-16
-15
-15
-15
-15
-14
-13
-12
-12
-11
-10
-8
-7
-5
-4
-4
-4
-4
-4
-3
-3
-1
0
1
1
1
0
-2
-3
-3
-2
-1
1
1
1
-1
-3
-6
-8
-10
-11
-12
-12
-12
-12
-12
-12
-12
-13
-14
-15
-17
-18
-18
-18
-18
-18
-18
-18
-18
-18
-17
-17
-16
-15
-14
-14
-14
-14
-13
-12
-11
-9
-7
-5
-2
2
6
12
18
25
30
34
36
36
34
29
22
14
4
-5
-14
-22
-29
-34
-39
-42
-44
-45
-44
-42
-40
-37
-34
-32
-29
-26
-24
-22
-20
-19
-17
-14
-10
-1
17
46
89
143
198
242
261
246
196
119
27
-62
-134
-181
-201
-197
-174
-141
-104
-68
-36
-11
8
21
29
34
36
37
36
36
35
35
35
35
34
33
33
33
35
36
38
40
41
42
43
45
47
49
51
53
54
56
57
60
62
64
66
67
67
69
70
72
74
75
74
70
64
55
43
27
10
-10
-31
-51
-70
-88
-102
-114
-122
-126
-128
-128
-125
-120
-113
-104
-95
-85
-76
-67
-59
-52
-47
-42
-39
-36
-32
-29
-26
-23
-20
-17
-15
-13
-11
-9
-7
-6
-5
-4
-3
-2
1
3
5
7
8
9
8
8
8
7
6
5
5
4
3
3
3
3
3
2
2
2
1
0
-1
-3
-4
-5
-6
-6
-6
-6
-5
-4
-2
-1
-1
-1
-2
-4
-5
-6
-5
-4
-3
-2
-1
0
0
-1
-1
-2
-2
-1
0
1
3
4
6
7
8
10
12
15
20
24
29
33
36
37
37
35
32
27
20
12
4
-6
-15
-23
-30
-35
-38
-39
-39
-38
-37
-36
-34
-31
-27
-23
-19
-16
-13
-11
-9
-8
-3
7
29
65
114
172
228
266
275
248
188
104
14
-68
-129
-164
-175
-167
-147
-122
-94
-69
-48
-31
-18
-8
-2
3
6
8
10
12
14
15
17
18
19
20
22
23
24
25
27
29
32
35
37
39
40
41
42
43
46
48
51
55
58
62
65
68
69
70
70
70
69
68
65
60
54
45
32
16
-3
-23
-45
-66
-86
-103
-116
-126
-132
-136
-136
-134
-130
-124
-116
-108
-99
-90
-82
-74
-67
-61
-55
-50
-46
-43
-40
-37
-35
-32
-29
-26
-23
-21
-19
-17
-15
-14
-13
-12
-10
-9
-7
-5
-3
-2
-1
0
1
0
-1
-2
-3
-4
-5
-7
-7
-8
-8
-7
-7
-6
-5
-4
-5
-5
-7
-9
-11
-12
-13
-14
-13
-12
-11
-10
-9
-9
-10
-10
-10
-10
-10
-9
-8
-6
-5
-3
-2
-2
-1
0
1
2
3
5
6
8
11
14
19
24
28
33
36
38
37
35
31
26
19
11
3
-6
-14
-23
-30
-36
-41
-43
-44
-43
-41
-38
-35
-31
-28
-24
-20
-16
-11
-7
-4
-1
1
3
7
18
40
74
120
170
215
241
239
203
139
56
-30
-105
-159
-187
-191
-176
-148
-115
-80
-49
-22
-1
14
24
31
34
36
36
35
34
32
31
30
30
29
29
29
29
30
31
32
33
35
37
39
42
45
48
52
55
58
61
62
64
67
70
73
76
78
79
79
77
75
71
65
58
48
35
20
2
-17
-38
-57
-76
-92
-105
-115
-122
-127
-129
-129
-126
-122
-115
-108
-100
-92
-84
-77
-70
-63
-56
-50
-44
-39
-36
-34
-32
-30
-28
-27
-24
-22
-20
-17
-14
-11
-8
-6
-5
-3
-2
-1
0
2
3
4
5
5
5
4
3
2
2
1
1
2
2
4
5
6
6
6
5
3
2
0
-2
-2
-2
-1
1
4
6
7
8
7
6
5
3
3
2
2
2
1
1
1
2
2
3
5
8
11
16
21
26
30
33
34
35
34
33
31
28
24
20
13
6
-2
-10
-18
-25
-30
-35
-37
-38
-37
-36
-34
-31
-27
-23
-19
-16
-12
-9
-7
-6
-5
-5
-3
2
13
34
66
109
157
200
226
225
192
130
50
-36
-113
-169
-199
-205
-190
-161
-126
-89
-54
-25
-2
14
25
31
33
34
34
33
33
33
34
34
34
33
32
32
31
31
31
31
31
32
33
34
35
37
40
43
47
52
56
61
65
68
71
74
77
79
82
83
83
82
79
75
68
60
48
33
16
-5
-26
-47
-66
-84
-98
-109
-117
-122
-124
-122
-118
-112
-104
-96
-87
-78
-70
-63
-57
-51
-46
-41
-37
-33
-29
-25
-23
-20
-18
-15
-13
-12
-10
-9
-8
-7
-6
-5
-3
-1
2
5
7
8
9
10
10
11
10
10
10
9
9
9
9
9
8
8
7
6
5
4
2
0
-2
-2
-1
1
2
3
4
4
4
3
2
1
-1
-2
-2
-2
-2
-2
-1
0
2
5
7
10
13
16
18
19
20
22
25
28
31
34
35
34
32
29
25
21
17
11
5
-2
-8
-15
-20
-24
-27
-28
-27
-26
-24
-22
-20
-18
-17
-16
-14
-12
-10
-8
-6
-3
-1
4
14
32
62
103
154
204
241
255
237
187
113
29
-52
-117
-160
-179
-175
-156
-127
-95
-64
-37
-16
-1
9
16
20
23
24
24
23
22
21
21
21
22
23
26
28
31
34
37
39
41
43
46
49
52
55
58
61
64
66
69
70
72
73
75
77
78
79
80
80
79
78
74
68
60
48
33
15
-5
-25
-45
-63
-80
-95
-107
-115
-120
-122
-121
-117
-112
-106
-100
-93
-86
-79
-73
-67
-61
-55
-50
-45
-40
-35
-31
-27
-24
-21
-18
-15
-12
-10
-8
-7
-5
-4
-3
-2
-1
-1
-1
-1
-2
-3
-4
-5
-6
-7
-7
-7
-7
-7
-6
-5
-4
-3
-1
-1
-1
-2
-2
-2
-2
-1
0
1
1
0
0
1
1
2
2
2
2
2
2
1
0
-1
-3
-4
-4
-5
-5
-5
-4
-4
-3
-2
0
2
4
6
7
8
7
7
7
7
8
10
11
13
15
19
23
28
33
36
38
38
37
35
31
25
18
10
0
-10
-20
-28
-34
-37
-39
-39
-38
-36
-33
-30
-26
-23
-20
-17
-14
-12
-10
-8
-5
0
10
30
62
108
164
220
263
281
265
215
139
51
-33
-100
-145
-165
-165
-151
-129
-104
-80
-58
-39
-25
-13
-4
3
8
12
14
16
17
17
18
18
19
20
20
21
22
23
25
28
31
33
35
36
36
37
39
41
46
50
55
60
64
68
71
74
76
77
77
77
76
73
70
65
57
47
34
18
0
-19
-39
-59
-77
-93
-107
-117
-124
-127
-128
-126
-123
-117
-110
-103
-95
-87
-79
-70
-63
-55
-49
-43
-39
-35
-32
-28
-25
-22
-20
-18
-17
-17
-17
-17
-17
-17
-17
-16
-16
-15
-15
-15
-14
-14
-12
-11
-10
-8
-8
-8
-8
-8
-8
-7
-7
-6
-5
-3
-2
0
1
2
2
2
2
1
-1
-2
-3
-5
-6
-8
-8
-9
-9
-9
-8
-8
-6
-5
-4
-4
0
0
-4
-4
-4
-4
-3
-3
-3
-3
-2
-1
0
2
3
4
4
3
3
3
3
4
5
7
8
10
13
17
22
26
30
33
34
35
34
32
28
23
16
7
-2
-11
-19
-25
-29
-31
-31
-31
-29
-26
-23
-21
-18
-16
-14
-13
-11
-9
-6
-4
-2
1
9
25
54
98
155
214
264
291
283
238
163
72
-19
-94
-145
-171
-174
-161
-138
-110
-83
-58
-38
-23
-12
-5
1
4
6
7
9
11
14
17
20
22
24
26
27
28
29
29
30
31
33
35
37
40
42
45
48
51
54
56
60
63
65
68
71
74
77
79
81
81
80
77
72
65
55
42
27
8
-13
-36
-60
-82
-101
-117
-127
-132
-133
-130
-126
-120
-113
-107
-100
-95
-89
-83
-75
-67
-59
-52
-46
-42
-39
-36
-35
-33
-32
-30
-29
-27
-26
-24
-22
-20
-17
-15
-12
-10
-9
-8
-7
-6
-5
-4
-3
-1
0
1
1
2
1
1
0
-1
-2
-3
-3
-3
-2
-1
1
3
4
5
6
6
5
4
3
2
2
2
2
3
3
4
3
3
2
2
2
2
2
2
2
3
4
5
7
8
9
10
11
11
12
12
12
12
12
11
12
13
15
18
20
22
25
27
31
33
36
38
40
40
39
36
31
24
16
7
-3
-12
-20
-25
-29
-30
-30
-30
-29
-28
-28
-27
-25
-24
-21
-19
-16
-13
-10
-7
-4
1
10
29
60
106
162
219
263
280
262
208
126
34
-54
-123
-166
-182
-176
-156
-128
-97
-68
-42
-22
-7
4
11
15
18
19
21
22
23
25
27
29
30
31
31
32
33
33
35
36
37
38
39
40
42
44
47
48
50
52
54
57
60
64
67
69
71
73
75
76
75
73
70
65
57
47
33
17
-2
-23
-43
-64
-82
-99
-112
-121
-128
-131
-132
-130
-127
-121
-114
-106
-97
-88
-79
-71
-63
-56
-50
-46
-42
-38
-35
-32
-27
-23
-20
-17
-16
-15
-14
-13
-12
-11
-10
-9
-9
-9
-9
-9
-9
-8
-7
-5
-3
-1
2
4
5
5
5
4
3
2
1
0
-1
-2
-3
-5
-5
-6
-5
-4
-2
-1
1
2
2
2
3
3
3
2
-1
-3
-5
-6
-5
-4
-3
-1
-1
0
0
-1
-1
-2
-3
-4
-5
-4
-2
1
4
8
11
13
15
18
21
25
28
31
33
33
31
27
23
17
10
2
-7
-16
-25
-31
-36
-39
-40
-39
-37
-35
-31
-27
-23
-20
-18
-17
-17
-18
-18
-17
-16
-14
-10
-3
10
33
67
110
156
195
214
207
169
106
29
-50
-118
-166
-190
-191
-173
-144
-109
-74
-42
-16
4
18
26
31
33
32
32
31
31
31
31
30
30
30
30
30
30
30
31
31
32
33
33
34
35
37
39
41
45
48
52
56
60
65
69
72
76
78
79
79
78
76
73
68
62
53
40
23
4
-18
-41
-63
-83
-101
-116
-127
-134
-138
-138
-135
-129
-122
-114
-106
-98
-90
-82
-74
-66
-57
-50
-43
-38
-34
-31
-28
-25
-23
-21
-19
-18
-17
-16
-16
-16
-16
-16
-16
-15
-15
-14
-13
-13
-11
-10
-8
-6
-4
-3
-2
-1
0
1
1
1
1
0
0
-1
-1
-1
-2
-3
-5
-7
-8
-9
-10
-9
-8
-7
-5
-3
-1
-1
-1
-2
-4
-4
-4
-2
0
3
5
8
10
12
14
17
20
22
24
25
26
25
23
20
16
11
4
-3
-10
-18
-25
-31
-35
-37
-37
-36
-35
-34
-34
-32
-31
-28
-26
-23
-21
-18
-14
-11
-8
-4
2
13
33
64
106
153
197
226
228
197
137
58
-26
-100
-155
-184
-190
-178
-153
-124
-93
-65
-40
-20
-6
5
11
15
17
18
18
18
18
17
16
16
16
16
16
17
18
18
19
20
21
23
25
27
30
32
34
37
39
42
45
48
51
54
57
60
62
64
66
66
64
61
56
48
38
26
11
-5
-24
-44
-63
-81
-96
-108
-117
-123
-126
-125
-123
-117
-111
-103
-95
-88
-81
-75
-69
-63
-57
-52
-47
-42
-38
-35
-31
-28
-26
-24
-23
-22
-21
-19
-17
-15
-13
-12
-11
-10
-10
-9
-8
-8
-7
-6
-5
-4
-3
-2
-1
1
3
6
9
11
13
14
14
14
14
13
11
9
7
6
5
4
3
2
2
2
2
2
2
3
4
4
4
3
2
2
1
2
2
3
3
3
3
3
3
4
6
7
8
10
11
12
14
18
24
30
36
41
45
46
45
42
37
32
27
21
14
6
-3
-11
-20
-27
-33
-36
-36
-35
-34
-31
-29
-27
-25
-23
-20
-17
-13
-11
-8
-6
-4
1
10
29
60
102
153
203
241
254
235
184
109
22
-60
-125
-167
-184
-181
-164
-138
-109
-81
-55
-33
-16
-4
3
8
10
12
12
13
14
16
19
21
23
25
26
27
28
30
30
31
32
34
35
37
39
40
42
45
48
52
56
61
65
69
73
77
80
83
85
86
86
84
80
73
64
51
36
17
-3
-25
-47
-68
-87
-103
-115
-123
-127
-128
-125
-120
-113
-105
-96
-87
-79
-71
-64
-58
-52
-47
-42
-38
-34
-30
-26
-23
-21
-19
-17
-16
-15
-14
-14
-14
-14
-14
-14
-13
-11
-9
-7
-5
-4
-3
-3
-2
-1
0
1
2
2
2
1
1
0
0
0
0
0
0
1
1
1
2
2
1
-1
-3
-4
-6
-6
-6
-6
-6
-5
-5
-4
-3
-1
0
2
3
3
2
1
0
0
1
2
4
7
9
11
14
17
20
24
27
29
31
32
31
29
26
21
13
4
-5
-15
-24
-30
-35
-37
-37
-37
-35
-33
-30
-26
-23
-19
-16
-12
-9
-7
-5
-4
-3
0
8
26
57
101
154
208
249
264
247
196
120
32
-50
-116
-157
-174
-171
-154
-129
-101
-74
-50
-31
-16
-4
4
10
13
15
16
16
16
17
17
18
20
21
23
24
25
25
25
25
26
28
31
33
35
38
41
46
50
54
58
62
65
67
70
73
76
79
81
83
83
81
77
71
62
49
33
14
-7
-30
-52
-73
-91
-107
-119
-127
-132
-133
-132
-128
-122
-114
-106
-98
-90
-82
-75
-68
-60
-53
-45
-38
-32
-28
-25
-23
-21
-20
-20
-20
-19
-19
-18
-17
-15
-12
-10
-7
-6
-5
-4
-4
-4
-3
-3
-2
-1
-1
0
0
0
-1
-1
0
0
1
1
1
1
0
0
1
2
3
4
5
5
5
5
5
5
5
5
5
6
7
7
7
6
5
3
2
2
3
6
9
11
12
11
9
6
3
1
0
1
4
7
11
14
17
20
23
27
31
35
37
39
39
39
38
35
30
23
15
6
-5
-14
-23
-29
-32
-33
-32
-30
-28
-26
-24
-21
-18
-16
-13
-11
-9
-7
-6
-6
-5
-1
9
29
63
110
166
219
258
268
244
187
106
17
-64
-127
-164
-176
-168
-148
-121
-92
-64
-41
-22
-8
2
8
11
14
17
19
22
24
26
28
29
30
30
31
32
32
33
32
32
31
30
30
31
33
36
40
45
50
54
59
63
67
71
75
78
80
82
84
84
84
82
78
71
61
47
30
10
-11
-33
-55
-75
-93
-108
-119
-126
-129
-127
-123
-117
-111
-104
-97
-90
-82
-75
-67
-60
-52
-46
-41
-37
-34
-32
-30
-27
-24
-21
-17
-13
-11
-8
-7
-5
-5
-4
-4
-3
-2
-1
-1
0
0
-1
-1
-1
0
2
5
8
10
11
11
11
10
9
8
6
5
5
5
5
6
6
7
7
7
7
7
6
5
5
4
5
6
7
7
7
6
5
3
2
1
2
2
3
4
5
5
5
5
5
5
6
8
9
10
12
15
19
23
27
31
35
37
38
37
35
31
27
21
14
5
-6
-16
-25
-33
-39
-43
-44
-45
-43
-41
-39
-36
-33
-30
-26
-24
-21
-18
-16
-14
-12
-9
-2
13
40
81
134
190
238
262
254
210
137
48
-41
-115
-165
-188
-188
-170
-142
-109
-76
-47
-22
-4
9
18
23
25
25
25
24
23
22
23
23
24
25
27
28
31
33
35
37
38
39
39
40
41
42
43
44
46
49
53
57
60
63
66
69
71
74
77
78
78
77
73
67
59
48
34
16
-4
-25
-48
-69
-87
-103
-116
-125
-131
-133
-133
-129
-124
-117
-109
-101
-92
-83
-75
-68
-62
-56
-51
-46
-41
-37
-34
-31
-29
-27
-26
-25
-23
-21
-19
-16
-14
-11
-8
-5
-3
1
3
5
6
6
6
6
6
5
5
5
6
6
7
7
7
6
5
5
4
3
2
0
-2
-4
-5
-6
-6
-5
-4
-2
-1
0
1
1
1
2
2
2
2
2
2
2
2
1
1
2
3
5
8
12
17
21
24
27
30
30
30
29
27
25
21
16
9
2
-6
-14
-21
-27
-31
-33
-34
-33
-31
-29
-26
-23
-21
-18
-16
-13
-12
-10
-9
-7
-4
1
7
18
37
65
102
145
183
208
208
179
123
50
-28
-98
-150
-179
-185
-173
-147
-114
-78
-45
-17
6
22
33
39
43
45
45
44
41
38
35
32
28
26
25
25
26
28
31
33
36
38
39
41
42
43
45
47
50
52
55
58
62
65
68
72
75
78
80
81
81
79
75
69
61
50
37
21
3
-18
-39
-60
-80
-98
-113
-124
-132
-136
-137
-135
-131
-125
-118
-109
-100
-90
-82
-74
-67
-61
-55
-49
-43
-38
-34
-32
-30
-29
-28
-26
-24
-21
-19
-17
-16
-14
-13
-12
-11
-10
-8
-8
-7
-7
-7
-6
-5
-5
-4
-2
0
2
4
6
8
8
9
8
8
7
6
5
4
3
2
1
0
-1
-2
-3
-4
-4
-4
-4
-5
-5
-5
-5
-4
-3
-2
-1
1
3
4
6
7
10
14
19
23
27
29
29
27
24
21
16
12
7
2
-5
-11
-17
-23
-28
-32
-34
-34
-32
-30
-27
-24
-21
-19
-17
-15
-13
-11
-9
-6
-4
-1
3
11
27
53
91
138
185
222
237
223
178
109
30
-47
-109
-149
-166
-163
-147
-124
-98
-72
-50
-31
-17
-6
2
7
11
13
15
16
17
17
18
18
19
19
20
21
22
23
24
24
25
25
26
27
28
31
33
36
39
42
46
48
51
52
54
55
55
56
55
55
54
51
48
42
33
21
6
-10
-27
-45
-62
-78
-93
-106
-117
-124
-128
-129
-128
-124
-119
-111
-103
-95
-86
-78
-70
-62
-55
-49
-44
-40
-37
-35
-33
-30
-28
-26
-24
-23
-22
-21
-20
-18
-17
-15
-13
-12
-10
-8
-7
-4
-2
1
3
5
6
6
6
6
6
5
5
4
3
2
1
1
0
1
2
3
4
5
6
6
7
7
7
6
6
5
3
2
0
-1
-2
-2
-2
-2
-2
-2
-1
0
2
4
6
8
10
11
13
14
16
18
20
23
26
30
34
37
39
39
38
36
33
29
23
17
9
0
-8
-17
-24
-29
-33
-34
-34
-32
-29
-25
-22
-20
-18
-17
-15
-14
-14
-13
-11
-9
-7
-4
4
19
44
81
129
179
222
244
236
195
127
42
-42
-114
-163
-186
-186
-167
-138
-105
-72
-42
-18
1
15
24
30
32
33
32
30
29
28
27
27
27
28
29
30
31
32
33
34
35
36
37
38
40
43
46
49
53
57
62
66
71
74
77
78
79
80
81
81
80
79
76
70
61
49
34
17
-3
-23
-44
-64
-82
-98
-111
-120
-126
-128
-128
-125
-120
-113
-105
-97
-88
-80
-71
-64
-57
-51
-46
-41
-36
-32
-28
-24
-21
-19
-18
-17
-16
-14
-13
-13
-12
-11
-9
-7
-5
-3
-1
0
0
0
0
0
0
0
-1
-1
-1
-2
-2
-2
-3
-3
-2
-1
0
1
2
2
2
2
2
2
2
2
1
-1
-2
-4
-4
-4
-3
-2
-2
-1
-1
0
0
-1
-1
-2
-3
-4
-4
-3
-2
-1
1
2
3
4
6
8
11
14
19
23
27
31
33
33
33
30
26
21
13
5
-5
-13
-21
-27
-31
-33
-33
-31
-30
-28
-26
-24
-22
-20
-17
-15
-12
-10
-8
-6
-4
-1
5
16
37
70
116
171
223
260
271
247
190
109
19
-65
-129
-168
-182
-176
-156
-128
-100
-73
-50
-31
-17
-7
2
8
13
16
19
20
20
19
18
19
19
21
22
24
25
26
27
27
28
28
30
31
32
34
37
41
45
50
54
58
62
65
68
71
73
75
76
76
75
72
68
61
52
39
25
8
-11
-31
-51
-69
-85
-98
-108
-115
-119
-121
-120
-117
-113
-106
-99
-91
-82
-75
-68
-62
-57
-53
-49
-45
-41
-37
-33
-29
-25
-22
-19
-17
-15
-14
-14
-14
-13
-13
-12
-11
-10
-9
-7
-6
-4
-3
-2
0
2
3
4
4
4
4
3
2
1
1
1
0
0
-2
-3
-5
-6
-7
-6
-5
-3
-2
0
1
3
3
4
4
4
4
4
3
3
3
3
4
4
4
4
4
4
4
4
5
5
5
5
5
6
7
8
9
10
12
13
15
17
18
20
23
26
28
30
31
31
30
28
25
22
17
9
1
-9
-18
-25
-30
-33
-34
-33
-33
-31
-29
-27
-24
-22
-19
-16
-13
-11
-9
-8
-7
-5
0
12
36
73
124
182
234
270
275
245
183
99
10
-70
-129
-164
-176
-169
-150
-124
-97
-71
-49
-32
-20
-11
-4
1
5
8
11
0
0
13
15
17
19
22
24
27
29
31
32
33
35
36
38
39
40
41
43
45
48
51
54
58
62
66
70
74
79
82
85
87
88
88
86
84
80
73
64
51
34
15
-5
-26
-47
-66
-83
-98
-110
-118
-123
-125
-123
-119
-113
-105
-97
-89
-81
-74
-67
-61
-55
-50
-44
-38
-33
-28
-23
-20
-17
-14
-13
-12
-11
-11
-11
-12
-12
-13
-12
-12
-12
-11
-10
-9
-7
-4
-1
2
3
3
2
1
0
0
0
1
1
1
1
0
-2
-3
-4
-5
-4
-2
1
3
5
5
4
3
1
0
-1
-2
-2
-2
-1
-1
-1
-1
-1
-1
-1
0
1
3
5
7
9
11
12
13
13
14
14
15
14
14
13
12
12
12
13
16
21
26
32
37
41
44
44
43
39
34
27
19
9
-2
-12
-22
-29
-35
-38
-39
-38
-37
-34
-32
-30
-28
-26
-24
-22
-20
-17
-15
-13
-10
-5
7
27
61
108
164
217
256
266
242
184
102
11
-71
-135
-172
-183
-175
-153
-124
-94
-65
-40
-20
-5
6
14
19
23
26
28
29
30
29
29
28
28
28
29
30
31
32
33
34
36
38
40
42
46
50
54
58
62
65
67
69
71
71
72
73
74
75
77
77
77
75
71
66
58
47
34
17
-3
-24
-46
-66
-85
-101
-114
-123
-128
-130
-130
-127
-121
-113
-103
-93
-83
-73
-66
-59
-54
-50
-46
-43
-39
-35
-31
-26
-22
-18
-14
-10
-7
-4
-2
0
1
2
2
2
2
2
2
3
4
6
7
8
8
7
6
6
5
6
6
7
8
8
8
6
5
3
2
0
-2
-3
-4
-4
-4
-4
-3
-3
-3
-4
-5
-5
-6
-6
-5
-3
-2
-1
1
1
2
3
3
3
3
2
1
1
2
3
4
6
8
10
12
14
16
19
23
27
31
35
37
38
37
35
32
29
26
21
15
7
-2
-11
-19
-25
-29
-31
-30
-29
-28
-26
-25
-23
-22
-20
-19
-17
-14
-11
-7
-4
-1
3
9
21
41
71
111
154
191
211
206
171
109
32
-47
-116
-165
-190
-190
-172
-141
-104
-68
-36
-9
11
25
35
41
44
46
46
46
45
43
42
40
38
37
37
36
36
36
37
38
39
41
44
46
49
51
53
54
56
58
60
63
66
70
73
76
79
82
85
86
87
86
84
80
73
63
49
32
11
-11
-34
-56
-78
-97
-113
-124
-132
-135
-134
-130
-124
-116
-108
-99
-91
-83
-76
-70
-64
-59
-54
-50
-46
-43
-40
-38
-35
-33
-31
-27
-24
-21
-19
-17
-15
-14
-13
-12
-11
-10
-8
-7
-5
-4
-3
-2
-1
0
1
1
1
2
2
2
1
0
-1
-2
-3
-3
-3
-3
-3
-2
-2
-2
-3
-3
-3
-3
-2
0
1
1
1
1
0
-2
-3
-4
-4
-5
-5
-5
-6
-5
-5
-3
0
4
9
13
17
21
25
28
32
34
36
36
35
32
29
25
20
14
6
-3
-12
-21
-29
-35
-38
-39
-39
-38
-37
-35
-34
-33
-31
-29
-27
-25
-22
-19
-17
-15
-14
-13
-10
-4
10
35
72
120
171
214
238
232
194
128
44
-41
-115
-167
-193
-195
-179
-152
-119
-86
-56
-31
-12
1
10
16
19
20
21
21
20
19
19
18
18
18
19
20
21
22
23
24
25
27
28
30
32
34
36
39
42
45
47
50
54
58
63
68
72
75
78
79
79
77
73
66
57
44
29
11
-8
-28
-50
-70
-89
-106
-119
-129
-136
-140
-141
-139
-134
-127
-119
-110
-101
-92
-82
-74
-66
-60
-55
-50
-46
-41
-37
-33
-30
-28
-27
-26
-26
-25
-24
-23
-22
-20
-18
-16
-14
-13
-12
-12
-11
-10
-9
-7
-6
-4
-3
-2
-1
0
0
1
1
1
1
0
0
-1
-2
-2
-2
-2
-2
-2
-1
0
1
1
1
1
0
-2
-3
-4
-4
-4
-3
-2
-2
-2
-3
-5
-6
-8
-9
-9
-9
-7
-6
-3
-2
0
2
4
6
8
11
14
18
22
25
28
30
31
30
28
25
20
13
5
-4
-11
-17
-22
-25
-26
-26
-26
-26
-25
-25
-25
-26
-26
-25
-24
-22
-19
-16
-13
-11
-7
0
14
39
75
121
171
215
241
239
204
141
59
-26
-102
-156
-185
-190
-176
-149
-116
-84
-54
-29
-10
4
14
19
23
24
24
24
23
22
22
23
24
26
28
30
31
31
31
32
33
35
37
38
40
41
42
44
46
48
51
54
57
61
64
69
74
79
83
86
88
88
86
82
75
64
51
34
15
-5
-25
-46
-66
-84
-100
-113
-121
-125
-125
-122
-117
-110
-102
-94
-86
-78
-70
-63
-56
-49
-42
-37
-32
-27
-24
-21
-19
-18
-17
-17
-16
-15
-13
-11
-9
-6
-4
-2
-1
0
1
2
3
5
6
7
8
8
8
7
6
4
2
1
-1
-1
-1
0
1
3
3
4
4
4
3
3
2
2
2
3
3
4
3
3
2
1
-1
-2
-2
-4
-5
-6
-7
-7
-6
-5
-3
-1
0
0
0
-1
-1
0
1
2
3
5
6
7
8
9
11
14
18
22
27
32
34
36
35
34
30
26
19
12
3
-6
-14
-21
-27
-32
-34
-36
-35
-34
-32
-28
-25
-22
-20
-17
-15
-12
-10
-7
-4
0
8
23
50
88
137
189
232
256
248
207
138
52
-35
-108
-158
-183
-186
-172
-149
-121
-93
-67
-45
-26
-12
-2
6
11
14
16
16
15
14
14
15
17
19
21
23
24
24
24
24
23
22
23
24
27
30
34
37
41
45
49
53
57
61
65
67
70
71
73
74
75
75
72
68
61
50
37
22
4
-16
-37
-58
-78
-96
-110
-120
-126
-128
-126
-123
-118
-112
-106
-98
-91
-83
-76
-68
-60
-53
-46
-40
-35
-31
-27
-25
-23
-23
-23
-22
-21
-19
-17
-15
-14
-13
-12
-11
-9
-8
-6
-5
-5
-5
-5
-5
-5
-4
-3
-2
-1
0
1
1
2
2
3
4
4
4
3
2
1
0
-1
-1
-1
-1
-1
-2
-2
-2
-2
-3
-4
-5
-6
-6
-6
-6
-6
-6
-6
-7
-7
-7
-7
-7
-7
-8
-8
-9
-9
-8
-7
-6
-5
-3
-2
-1
0
1
2
4
6
8
11
14
17
21
24
28
31
33
34
34
34
33
31
27
21
13
3
-8
-19
-28
-34
-37
-38
-37
-36
-34
-31
-28
-26
-24
-22
-20
-20
-19
-18
-18
-16
-13
-7
7
30
66
115
172
225
262
269
240
179
95
5
-76
-136
-171
-182
-174
-155
-129
-102
-77
-55
-38
-25
-16
-10
-5
0
4
8
12
14
16
18
19
19
19
19
19
19
20
22
24
27
29
32
35
38
41
44
47
50
53
57
62
66
69
71
73
74
76
77
77
78
77
73
68
59
47
31
13
-8
-30
-52
-72
-89
-103
-114
-122
-126
-128
-127
-123
-117
-109
-100
-92
-83
-75
-68
-61
-54
-47
-41
-35
-30
-25
-21
-18
-14
-11
-8
-5
-2
-1
0
0
-1
-2
-2
-2
-1
0
2
3
3
3
3
4
5
6
7
9
10
10
10
10
10
9
9
8
6
5
4
2
1
0
-1
0
0
1
0
-2
-3
-5
-6
-7
-7
-6
-5
-4
-3
-2
-2
-2
-3
-3
-3
-3
-4
-4
-5
-6
-7
-7
-6
-4
-2
1
2
4
6
7
8
10
11
12
14
17
20
24
28
32
35
38
39
39
38
36
33
28
22
14
6
-4
-13
-22
-29
-34
-37
-38
-37
-35
-33
-30
-28
-26
-24
-23
-21
-19
-17
-14
-12
-9
-3
8
29
63
111
167
222
260
271
245
186
103
12
-70
-132
-168
-180
-172
-151
-123
-94
-67
-45
-28
-15
-6
1
5
8
10
11
12
13
15
16
18
19
20
21
23
26
29
31
33
35
36
37
38
39
41
42
44
46
48
50
53
55
58
61
65
68
71
73
74
74
72
69
63
54
42
27
9
-11
-32
-54
-75
-94
-110
-122
-131
-136
-137
-135
-130
-123
-115
-106
-97
-89
-82
-75
-68
-61
-54
-48
-42
-38
-35
-33
-30
-28
-25
-23
-21
-19
-16
-14
-11
-9
-8
-6
-5
-4
-3
-3
-3
-4
-5
-5
-4
-3
-2
-2
-1
-1
-1
-1
-1
-2
-2
-2
-3
-2
-2
0
2
3
4
4
3
1
-2
-3
-4
-3
-3
-3
-3
-4
-4
-3
-3
-2
-2
-2
-3
-3
-3
-3
-3
-2
-2
-2
-3
-4
-5
-5
-5
-4
-3
-3
-2
-2
-2
-2
-1
1
4
6
9
12
16
20
25
31
35
39
40
40
38
34
29
21
11
-1
-12
-23
-31
-35
-37
-37
-35
-34
-32
-30
-28
-27
-25
-23
-21
-18
-16
-13
-11
-9
-6
0
14
40
80
133
192
243
274
272
233
163
75
-14
-91
-143
-170
-173
-159
-136
-108
-80
-55
-35
-20
-9
-1
6
11
16
18
20
21
22
23
25
27
29
31
33
35
35
36
36
36
35
36
36
38
40
43
47
51
55
60
64
68
72
77
80
83
86
87
89
89
88
85
80
71
61
46
29
8
-14
-36
-59
-79
-98
-113
-125
-133
-138
-138
-136
-131
-125
-118
-111
-104
-97
-90
-82
-74
-66
-58
-51
-44
-38
-33
-29
-25
-23
-21
-20
-19
-19
-18
-17
-16
-15
-14
-13
-12
-11
-10
-9
-8
-6
-5
-3
-1
2
3
4
5
5
5
5
5
5
5
5
5
5
4
4
4
3
2
1
1
0
1
1
1
1
1
2
2
3
4
5
7
8
9
10
11
11
12
12
12
12
12
12
12
12
13
14
16
18
20
23
26
30
34
37
40
41
41
40
38
35
31
26
21
14
6
-3
-12
-20
-27
-32
-34
-34
-34
-33
-31
-30
-28
-25
-23
-19
-16
-12
-9
-6
-4
-2
-1
2
9
24
51
93
145
200
245
267
256
210
136
48
-39
-111
-159
-181
-180
-162
-134
-103
-71
-44
-21
-3
9
18
23
26
27
26
25
24
23
23
24
26
28
29
31
32
33
34
34
35
36
37
38
40
42
45
49
52
56
60
62
64
65
66
67
68
69
70
71
71
69
66
60
52
41
27
12
-5
-24
-44
-63
-81
-97
-110
-120
-126
-129
-129
-127
-124
-118
-111
-103
-95
-87
-79
-72
-65
-59
-53
-47
-42
-37
-33
-30
-26
-23
-19
-15
-12
-8
-6
-4
-3
-1
1
2
4
5
7
8
9
10
11
12
13
13
14
14
14
14
14
13
12
10
9
7
6
5
5
6
6
6
6
6
7
7
7
8
8
8
7
6
5
5
5
5
6
6
6
5
5
4
4
4
5
5
6
6
6
7
8
10
12
14
18
22
27
32
38
43
47
50
50
49
47
43
38
32
25
16
7
-3
-11
-19
-24
-27
-28
-27
-24
-21
-18
-14
-11
-9
-7
-6
-4
-3
-1
1
3
7
15
32
60
101
154
211
259
285
278
235
162
72
-18
-94
-146
-173
-176
-161
-137
-107
-78
-51
-29
-11
3
12
18
22
23
24
25
26
27
29
30
31
32
32
32
33
33
33
35
37
39
42
45
48
50
53
56
60
63
67
70
73
76
79
81
83
84
85
86
86
85
82
78
70
58
43
25
5
-16
-37
-57
-76
-93
-107
-118
-125
-128
-128
-125
-119
-113
-105
-97
-89
-80
-73
-66
-60
-55
-50
-47
-43
-39
-35
-32
-28
-25
-22
-19
-16
-13
-10
-8
-6
-5
-4
-2
-1
1
2
3
3
4
4
5
6
7
8
9
9
8
7
5
2
1
-1
-1
-1
0
2
3
5
6
6
7
7
6
6
5
4
4
3
3
3
3
4
5
6
7
8
8
7
6
4
3
2
1
2
3
5
7
10
11
12
13
16
20
24
28
32
34
35
34
32
30
26
21
14
5
-5
-16
-25
-32
-36
-38
-37
-36
-34
-31
-28
-25
-22
-19
-16
-13
-10
-7
-5
-3
-1
2
9
24
53
95
149
204
248
268
254
204
127
37
-50
-121
-167
-187
-185
-166
-139
-108
-78
-51
-30
-14
-3
5
10
12
14
15
16
17
19
20
22
23
23
24
25
25
26
26
27
28
30
32
34
36
37
39
42
45
49
54
59
64
68
72
75
77
78
79
78
77
73
69
63
55
45
32
16
-2
-22
-43
-64
-83
-101
-114
-125
-131
-133
-132
-127
-121
-113
-105
-97
-89
-81
-74
-68
-61
-55
-49
-43
-39
-35
-32
-30
-28
-26
-25
-23
-20
-18
-15
-12
-9
-6
-4
-3
-1
-1
0
1
2
3
4
4
4
4
4
3
2
2
2
2
2
1
1
1
1
1
1
1
1
0
-1
-1
-1
-1
-2
-2
-3
-3
-4
-4
-4
-4
-4
-3
-2
-1
-1
0
-1
-2
-3
-4
-5
-5
-6
-6
-5
-4
-3
-1
2
5
7
10
13
16
20
25
30
34
36
37
36
34
31
26
21
14
6
-4
-14
-23
-31
-37
-40
-41
-40
-38
-35
-32
-28
-25
-22
-20
-18
-16
-13
-12
-10
-9
-6
1
15
41
82
135
192
243
273
271
233
163
74
-18
-97
-153
-183
-188
-174
-149
-118
-87
-59
-36
-19
-6
3
10
14
17
19
21
23
25
27
28
29
30
31
32
32
32
31
32
33
34
36
38
40
42
44
46
47
50
52
56
59
63
66
69
71
73
75
76
77
77
75
70
63
52
0
0
39
22
4
-17
-39
-61
-82
-100
-115
-127
-134
-138
-138
-136
-131
-125
-118
-109
-100
-92
-83
-75
-68
-61
-55
-49
-43
-38
-34
-31
-28
-26
-25
-23
-21
-18
-16
-13
-11
-10
-8
-7
-6
-6
-5
-4
-3
-2
-1
1
2
3
3
3
2
1
-1
-3
-4
-5
-6
-7
-8
-8
-7
-6
-5
-4
-4
-4
-4
-4
-4
-4
-4
-4
-5
-5
-5
-4
-4
-3
-3
-4
-4
-5
-5
-5
-4
-4
-3
-3
-2
-2
-2
-1
-1
-1
0
2
4
8
13
19
25
30
34
36
37
36
34
30
25
18
9
-1
-11
-20
-27
-33
-36
-36
-36
-34
-32
-30
-27
-25
-24
-22
-21
-19
-17
-15
-13
-12
-11
-8
0
17
46
88
139
191
231
246
229
178
101
12
-73
-140
-183
-199
-192
-169
-138
-104
-71
-43
-20
-3
9
17
22
24
26
26
26
27
27
28
28
28
27
26
26
27
27
29
30
32
35
37
39
41
42
44
46
48
51
55
59
62
66
68
71
73
75
77
78
77
75
70
64
55
43
28
11
-9
-30
-51
-72
-91
-107
-119
-126
-130
-130
-128
-124
-117
-110
-101
-93
-84
-76
-69
-63
-58
-53
-48
-43
-39
-34
-30
-27
-24
-21
-19
-17
-14
-12
-9
-6
-4
-2
0
0
1
1
2
4
5
7
8
9
9
9
10
10
11
11
11
11
11
10
10
9
7
6
4
2
0
-1
-1
-1
-1
-1
-1
-2
-2
-2
-2
-2
-2
-3
-3
-3
-3
-3
-3
-2
-2
-2
-2
-2
-1
-1
1
3
6
8
10
13
16
19
22
26
28
30
31
30
28
26
23
18
12
5
-3
-11
-19
-25
-29
-31
-31
-30
-28
-26
-23
-21
-19
-19
-18
-18
-18
-17
-15
-12
-9
-3
7
23
51
90
139
190
232
253
243
200
128
42
-43
-114
-161
-183
-182
-164
-137
-106
-77
-51
-31
-15
-5
3
7
11
12
13
14
14
16
17
19
20
21
21
20
19
19
21
23
26
29
32
34
36
38
41
44
48
51
55
58
62
65
67
69
69
69
69
68
68
67
65
60
53
43
30
13
-5
-25
-46
-66
-84
-100
-112
-121
-126
-128
-128
-125
-120
-114
-108
-101
-95
-88
-82
-76
-70
-63
-57
-52
-47
-42
-38
-34
-30
-27
-25
-23
-21
-20
-20
-18
-17
-15
-14
-13
-13
-13
-12
-12
-11
-10
-9
-8
-8
-7
-7
-7
-7
-7
-7
-7
-8
-8
-8
-9
-9
-9
-9
-9
-9
-9
-9
-10
-11
-11
-12
-13
-14
-15
-16
-16
-15
-14
-13
-12
-11
-10
-10
-10
-9
-8
-6
-4
-3
-3
-3
-3
-3
-2
0
2
4
6
7
8
9
11
13
17
21
25
29
32
33
33
31
27
22
16
8
0
-9
-17
-24
-30
-34
-36
-37
-38
-37
-37
-36
-34
-32
-30
-27
-24
-21
-18
-15
-12
-9
-4
8
28
61
107
161
214
253
266
245
190
111
23
-60
-124
-164
-179
-174
-156
-131
-104
-77
-52
-31
-15
-3
6
12
17
19
21
22
22
22
21
20
19
18
18
18
18
19
21
24
26
29
31
33
35
38
40
43
47
51
55
60
64
69
74
79
83
86
87
87
86
84
80
75
66
55
41
23
4
-18
-39
-59
-78
-94
-106
-115
-122
-124
-124
-122
-116
-110
-101
-93
-84
-75
-67
-60
-54
-48
-43
-40
-36
-33
-30
-27
-24
-22
-19
-17
-14
-12
-10
-8
-7
-6
-6
-5
-4
-3
-2
-1
-1
0
1
1
2
4
6
7
8
9
10
9
9
8
8
7
7
7
7
6
4
3
1
0
0
0
0
1
1
1
1
1
1
1
1
1
2
2
3
3
2
2
1
1
1
1
1
2
2
3
3
3
3
4
5
6
9
11
13
16
19
22
26
29
32
33
34
33
30
26
22
15
7
-2
-11
-20
-28
-34
-38
-40
-40
-38
-35
-31
-26
-21
-18
-15
-13
-12
-12
-11
-11
-10
-7
-1
12
36
73
124
181
233
267
271
238
173
87
-3
-81
-138
-169
-176
-165
-143
-116
-87
-62
-40
-23
-10
-2
4
8
10
12
13
14
15
16
17
18
19
20
22
24
26
27
29
31
33
36
38
41
43
45
47
48
50
53
55
58
63
67
72
77
81
84
86
86
85
82
78
71
61
49
33
15
-5
-26
-48
-68
-86
-102
-114
-123
-129
-131
-130
-126
-121
-114
-106
-97
-89
-80
-72
-65
-58
-52
-47
-41
-36
-32
-28
-25
-22
-20
-19
-17
-16
-14
-13
-12
-11
-9
-8
-6
-5
-3
-2
0
1
2
3
4
5
5
5
4
3
2
1
0
0
-1
-1
0
1
2
3
3
3
2
1
0
0
-1
-1
0
0
1
1
1
1
0
-1
-1
-2
-2
-2
-2
-2
-2
-2
-2
-2
-2
-3
-2
-2
-1
1
2
3
3
4
5
6
6
7
9
11
14
19
24
28
32
34
34
33
30
26
20
12
3
-8
-18
-26
-33
-38
-41
-41
-40
-38
-35
-31
-28
-25
-23
-22
-21
-21
-20
-20
-19
-18
-15
-7
11
41
86
142
199
244
263
247
196
117
27
-58
-124
-164
-179
-173
-153
-126
-96
-69
-45
-26
-12
-2
5
9
13
16
18
19
20
21
21
22
22
22
22
22
23
24
25
28
30
33
35
37
40
43
46
50
53
56
59
62
64
66
68
71
74
77
79
80
80
79
76
71
64
53
40
24
5
-17
-40
-62
-82
-100
-114
-125
-132
-135
-135
-132
-126
-119
-110
-100
-91
-83
-76
-70
-64
-59
-54
-48
-43
-39
-35
-31
-27
-24
-22
-20
-19
-17
-14
-11
-8
-6
-5
-4
-4
-4
-5
-5
-5
-5
-5
-5
-5
-4
-5
-5
-5
-6
-6
-5
-4
-3
-2
-1
-1
-1
-1
-1
-2
-2
-2
-3
-3
-4
-5
-5
-6
-6
-7
-7
-7
-7
-7
-8
-8
-9
-9
-9
-10
-10
-10
-10
-10
-9
-8
-7
-6
-5
-4
-4
-3
-2
0
2
5
8
10
13
16
19
23
27
31
34
35
35
33
29
25
20
13
5
-4
-14
-23
-31
-38
-42
-44
-45
-44
-43
-42
-40
-37
-35
-32
-30
-27
-26
-24
-23
-21
-18
-13
-1
21
57
106
162
214
247
249
215
149
64
-24
-99
-150
-175
-177
-162
-136
-106
-77
-51
-31
-16
-5
2
7
10
12
13
13
13
12
12
12
13
14
16
19
21
22
23
25
26
28
30
32
35
37
40
42
45
47
49
52
54
57
60
63
66
68
70
71
71
71
69
66
61
53
43
30
13
-5
-25
-46
-65
-82
-97
-108
-116
-121
-124
-123
-121
-117
-111
-105
-98
-92
-84
-77
-70
-63
-56
-50
-44
-39
-35
-31
-28
-25
-22
-19
-16
-13
-11
-9
-7
-6
-5
-4
-4
-3
-2
-1
-1
-1
-1
-1
0
1
2
3
4
3
3
2
1
0
0
0
0
1
1
2
2
2
1
-1
-2
-3
-4
-4
-4
-4
-3
-3
-2
-2
-2
-3
-3
-4
-4
-4
-4
-3
-2
-1
0
2
3
5
8
11
14
18
22
27
32
37
41
43
43
41
38
33
28
21
13
5
-4
-12
-20
-25
-29
-31
-31
-31
-30
-28
-27
-25
-24
-22
-20
-17
-15
-12
-10
-7
-4
-1
5
17
39
72
118
170
219
252
256
226
164
79
-11
-91
-150
-182
-188
-173
-146
-113
-79
-48
-21
0
16
27
35
40
42
42
41
38
36
34
32
32
32
32
33
34
35
36
36
37
38
39
41
43
46
48
50
52
54
57
60
63
67
70
72
74
75
76
76
76
74
72
68
63
55
45
32
15
-3
-23
-43
-63
-81
-96
-108
-116
-121
-123
-122
-120
-115
-110
-103
-96
-89
-82
-74
-67
-60
-53
-47
-41
-36
-31
-27
-23
-20
-17
-15
-13
-11
-9
-7
-4
-2
1
2
3
4
4
5
5
4
4
4
3
4
4
5
6
7
8
8
9
9
8
7
4
2
0
-2
-2
-2
-1
0
1
3
3
4
4
4
4
4
4
4
3
2
2
2
2
2
2
2
2
2
3
5
6
9
11
14
17
20
24
27
32
36
39
41
42
41
39
34
28
21
12
3
-7
-16
-24
-30
-35
-37
-37
-37
-35
-33
-31
-28
-25
-21
-18
-14
-11
-9
-7
-6
-5
-3
3
14
37
74
124
181
233
268
272
240
174
87
-5
-86
-144
-175
-181
-168
-143
-112
-81
-52
-28
-9
5
14
21
24
26
27
28
30
31
32
33
34
35
36
36
36
37
37
38
39
40
42
44
46
48
51
54
57
60
63
66
68
70
73
75
77
79
80
81
81
82
80
77
71
61
48
33
15
-5
-25
-46
-65
-82
-97
-108
-116
-121
-122
-120
-116
-111
-104
-97
-89
-82
-74
-67
-61
-54
-49
-44
-39
-35
-31
-28
-25
-22
-20
-19
-17
-15
-12
-9
-7
-4
-1
2
4
6
8
9
10
10
10
10
10
9
9
8
8
7
7
7
7
8
7
7
6
5
4
3
2
2
2
2
3
4
4
4
4
4
5
5
7
8
8
9
9
9
9
8
8
7
7
7
8
10
13
16
19
22
25
29
33
36
38
38
38
36
33
30
26
21
14
6
-4
-13
-21
-27
-31
-34
-35
-35
-34
-33
-32
-30
-28
-26
-25
-23
-22
-21
-20
-19
-18
-16
-12
-2
18
50
97
152
208
248
262
241
184
102
11
-74
-139
-179
-192
-184
-162
-132
-101
-71
-46
-26
-10
1
9
14
17
19
20
21
22
22
23
23
24
24
25
27
28
30
31
31
32
33
34
36
38
40
43
45
48
51
54
58
62
66
69
73
76
78
79
79
79
76
72
66
57
46
32
15
-5
-25
-46
-65
-83
-97
-108
-116
-121
-124
-124
-121
-116
-110
-101
-93
-83
-75
-66
-58
-50
-44
-38
-33
-28
-24
-21
-18
-15
-13
-10
-9
-7
-5
-3
0
2
5
7
8
9
9
8
8
7
7
8
8
9
11
13
14
15
16
15
14
13
13
12
13
13
13
13
13
13
12
12
12
11
11
10
10
9
9
9
9
10
11
11
12
11
10
9
8
6
5
4
3
2
3
4
6
8
11
14
17
22
27
31
35
38
39
38
36
32
26
19
11
2
-7
-16
-24
-30
-33
-34
-34
-34
-33
-31
-28
-26
-22
-19
-16
-13
-10
-8
-6
-5
-4
-1
7
24
55
100
156
212
256
274
257
204
124
33
-54
-124
-167
-185
-180
-160
-132
-101
-70
-44
-23
-6
5
13
17
20
21
22
23
24
25
26
27
29
31
32
34
36
37
38
39
40
42
44
46
49
53
56
60
63
66
69
71
73
75
75
76
76
76
77
77
76
74
71
67
61
52
39
23
4
-17
-37
-57
-74
-89
-101
-110
-116
-119
-119
-116
-111
-105
-97
-90
-81
-73
-65
-58
-51
-45
-40
-35
-30
-25
-21
-17
-14
-12
-10
-8
-7
-5
-5
-4
-3
-3
-2
-2
-1
1
2
3
3
4
4
5
6
7
7
7
7
6
5
5
5
6
6
6
5
3
2
1
-1
-1
-2
-2
-3
-3
-4
-4
-4
-4
-3
-2
-1
-1
0
1
1
2
3
4
4
5
5
5
6
6
7
9
11
13
14
15
17
19
23
28
33
38
41
43
44
42
39
34
27
18
7
-4
-15
-25
-33
-39
-42
-43
-42
-40
-38
-35
-32
-28
-25
-21
-18
-14
-12
-11
-11
-10
-8
-1
14
43
86
140
197
243
265
253
205
128
37
-51
-123
-171
-191
-189
-170
-142
-110
-80
-53
-32
-16
-4
4
9
12
13
13
13
13
14
15
16
18
20
22
25
27
30
32
34
35
36
36
37
39
41
43
47
50
54
58
62
66
69
72
74
76
77
78
77
76
74
71
66
58
47
33
16
-3
-24
-46
-66
-85
-101
-114
-124
-131
-134
-134
-131
-126
-120
-114
-107
-99
-91
-82
-73
-65
-57
-50
-43
-38
-33
-28
-23
-20
-16
-13
-12
-10
-9
-9
-8
-7
-7
-6
-6
-6
-6
-6
-6
-6
-7
-7
-7
-7
-7
-7
-7
-6
-6
-5
-4
-4
-4
-4
-4
-3
-3
-2
-2
-1
-1
-2
-3
-4
-5
-6
-7
-8
-8
-8
-7
-6
-6
-5
-5
-5
-4
-3
-2
-1
0
0
-1
-1
-1
0
1
3
5
7
9
12
16
20
24
29
33
36
38
39
39
38
35
30
23
14
5
-5
-14
-22
-28
-33
-35
-37
-37
-37
-35
-33
-30
-27
-24
-21
-18
-15
-12
-11
-10
-8
-3
10
35
74
127
186
239
272
273
237
168
79
-13
-94
-151
-182
-188
-176
-153
-125
-95
-68
-46
-27
-13
-3
4
9
13
15
17
18
19
19
20
20
20
21
22
24
26
28
31
33
36
38
40
42
45
47
49
52
54
57
61
65
69
73
77
80
81
81
81
80
77
73
67
59
48
34
17
-3
-23
-44
-65
-83
-100
-113
-122
-128
-130
-129
-126
-121
-114
-107
-99
-92
-84
-77
-71
-64
-58
-52
-46
-41
-37
-34
-31
-28
-25
-22
-20
-17
-14
-11
-8
-6
-4
-3
-2
-1
-1
-1
-1
-1
-1
-1
-1
-1
-1
-1
0
1
3
5
7
9
10
10
9
7
5
3
1
0
-2
-3
-3
-3
-3
-3
-3
-3
-4
-4
-3
-3
-2
-1
-1
-1
-1
-1
-1
-2
-2
-3
-3
0
0
-4
-5
-6
-8
-9
-9
-9
-8
-7
-5
-3
0
4
9
14
20
24
27
28
27
26
24
21
16
10
2
-8
-17
-26
-33
-37
-40
-42
-43
-43
-42
-40
-38
-35
-31
-28
-26
-24
-21
-19
-17
-14
-11
-4
12
39
80
134
192
243
271
268
227
156
68
-22
-98
-150
-177
-180
-165
-140
-110
-80
-53
-31
-13
0
9
15
19
21
23
23
24
25
25
26
28
29
31
33
35
37
38
40
41
42
42
43
45
46
49
52
56
60
64
68
72
75
79
82
85
88
91
92
92
90
86
80
70
58
43
25
5
-15
-36
-55
-73
-89
-102
-112
-118
-121
-121
-118
-113
-107
-100
-93
-86
-79
-72
-65
-59
-53
-48
-44
-40
-36
-33
-30
-26
-23
-19
-16
-12
-9
-7
-5
-4
-2
0
2
4
6
7
9
10
10
11
11
11
11
10
9
8
7
6
5
5
5
5
5
5
5
4
3
2
0
-1
-2
-2
-2
-2
-3
-4
-5
-6
-7
-7
-6
-6
-5
-5
-5
-5
-6
-6
-6
-6
-5
-5
-4
-4
-4
-3
-1
1
3
5
8
10
12
15
18
21
26
31
35
39
41
41
39
35
30
23
16
7
-2
-11
-19
-25
-31
-34
-37
-37
-37
-36
-34
-32
-29
-26
-23
-21
-18
-16
-14
-12
-12
-11
-8
1
20
53
101
159
216
259
274
253
198
116
25
-61
-127
-169
-184
-179
-160
-133
-103
-75
-49
-28
-12
0
9
16
20
22
24
24
24
23
23
22
22
23
25
26
28
31
33
36
38
39
41
43
45
48
50
53
56
59
62
65
69
73
77
81
85
88
90
91
90
88
83
75
63
48
30
8
-16
-40
-63
-85
-104
-121
-133
-143
-148
-150
-148
-143
-135
-126
-116
-106
-96
-86
-78
-69
-62
-55
-49
-43
-38
-34
-31
-28
-25
-22
-20
-17
-16
-16
-16
-16
-16
-16
-15
-14
-12
-10
-8
-7
-5
-3
-2
-2
-1
-1
0
0
1
3
4
5
5
5
4
4
4
4
3
3
2
1
0
-1
-2
-3
-4
-4
-4
-4
-4
-4
-4
-4
-4
-3
-2
-2
-2
-1
0
1
4
7
11
16
21
25
29
32
34
35
34
32
29
25
19
13
6
-3
-11
-19
-26
-32
-36
-38
-39
-38
-35
-33
-29
-26
-22
-19
-15
-12
-9
-7
-7
-7
-8
-8
-5
4
24
58
106
162
216
253
263
237
177
94
4
-79
-142
-179
-191
-182
-159
-129
-97
-68
-43
-23
-9
2
9
13
16
19
20
21
22
23
24
24
25
25
25
25
25
26
26
28
30
32
35
38
41
44
47
50
53
57
62
67
72
76
79
81
83
84
84
84
82
78
72
63
51
36
18
-2
-23
-46
-67
-87
-104
-118
-128
-134
-137
-136
-133
-127
-120
-111
-101
-92
-84
-76
-69
-63
-57
-52
-48
-43
-39
-36
-33
-30
-28
-26
-25
-23
-22
-21
-20
-20
-19
-18
-16
-15
-13
-12
-11
-10
-9
-8
-7
-6
-4
-2
-1
1
3
4
5
6
7
7
7
6
5
5
4
4
5
5
6
6
6
5
4
3
2
1
1
0
0
-1
-1
-2
-2
-3
-3
-3
-3
-4
-4
-4
-5
-5
-5
-5
-4
-2
0
2
6
11
17
23
29
33
35
36
35
32
29
24
18
10
1
-9
-19
-28
-35
-40
-44
-45
-45
-44
-41
-39
-36
-33
-30
-28
-26
-24
-22
-19
-17
-14
-10
-3
12
40
81
135
191
240
266
259
216
143
54
-36
-111
-162
-187
-189
-174
-149
-120
-91
-65
-43
-26
-13
-4
3
7
10
12
14
15
16
16
16
16
17
18
19
21
24
26
28
31
34
36
39
42
45
48
51
54
57
60
62
64
66
69
71
74
76
78
79
80
78
75
69
60
47
31
12
-8
-31
-53
-75
-94
-109
-121
-129
-133
-135
-134
-132
-128
-123
-117
-110
-101
-92
-83
-75
-66
-59
-53
-47
-43
-39
-35
-32
-30
-27
-26
-24
-23
-22
-20
-18
-15
-13
-12
-11
-11
-11
-10
-9
-8
-7
-6
-5
-5
-5
-5
-5
-5
-5
-5
-5
-5
-4
-4
-4
-3
-3
-2
-2
-1
-1
-1
-1
-1
-2
-2
-4
-5
-6
-7
-8
-9
-10
-10
-9
-8
-6
-4
-3
-1
0
1
1
1
0
-1
-1
-1
0
2
4
6
9
12
17
22
26
31
33
35
35
34
32
28
23
16
7
-3
-13
-23
-30
-36
-39
-40
-40
-39
-37
-35
-33
-31
-28
-26
-24
-22
-20
-18
-16
-14
-13
-8
4
26
62
112
169
224
260
267
238
176
91
-1
-83
-145
-180
-191
-182
-161
-133
-104
-77
-54
-36
-22
-12
-5
0
3
5
6
6
6
6
6
7
8
8
9
10
11
13
15
17
19
22
25
28
32
36
40
44
49
53
58
63
68
72
76
78
78
78
77
76
73
70
65
57
46
32
15
-5
-25
-47
-67
-86
-102
-115
-125
-131
-134
-133
-129
-124
-117
-109
-101
-94
-86
-80
-74
-69
-63
-57
-51
-45
-39
-33
-28
-24
-21
-18
-16
-15
-14
-14
-13
-13
-12
-10
-9
-8
-7
-7
-6
-6
-5
-4
-3
-1
0
2
3
3
3
2
1
0
0
-1
-1
-1
-1
0
1
1
1
1
0
0
-1
-2
-2
-3
-4
-5
-5
-6
-7
-7
-7
-7
-6
-6
-6
-5
-4
-3
-2
-1
0
1
1
0
0
-1
-2
-3
-3
-3
-2
0
2
4
7
11
16
22
27
32
35
36
36
33
30
25
19
12
3
-7
-16
-25
-31
-36
-37
-37
-36
-34
-31
-28
-25
-23
-21
-18
-16
-13
-11
-8
-6
-4
-1
4
14
35
69
117
172
226
262
271
243
183
100
9
-73
-136
-172
-184
-176
-154
-126
-96
-69
-46
-28
-14
-5
2
7
10
12
13
15
16
17
18
19
21
23
25
26
28
30
32
34
36
38
40
42
45
47
50
54
58
62
66
70
75
79
82
85
88
89
90
90
88
85
80
71
60
45
28
8
-14
-37
-59
-79
-97
-111
-121
-128
-131
-132
-130
-126
-120
-113
-104
-96
-87
-79
-71
-64
-57
-51
-46
-41
-36
-32
-29
-26
-24
-23
-21
-20
-19
-17
-16
-15
-14
-12
-10
-8
-6
-3
-1
2
4
5
7
8
8
8
8
8
7
7
6
6
7
7
7
8
7
7
6
5
3
2
1
0
-1
-1
-1
-2
-1
-1
-1
-1
-1
-1
-1
-1
-1
-1
-1
-1
-1
-1
-1
-1
-1
-1
-1
-1
-1
0
1
2
4
6
8
10
13
15
18
20
23
27
30
33
36
37
38
37
35
32
26
19
10
0
-10
-19
-26
-32
-36
-38
-38
-37
-35
-33
-30
-28
-26
-24
-23
-21
-19
-17
-15
-13
-11
-7
2
22
55
102
158
215
257
272
252
198
117
26
-58
-124
-165
-181
-176
-158
-132
-103
-76
-52
-33
-19
-9
-2
3
6
7
7
7
7
8
9
10
12
14
17
18
20
21
23
24
26
29
32
35
37
40
43
46
50
53
56
60
64
68
71
74
76
77
78
78
77
75
71
64
54
41
24
5
-16
-38
-60
-80
-99
-115
-127
-136
-141
-142
-139
-134
-127
-120
-112
-104
-96
-88
-80
-73
-66
-59
-54
-49
-44
-40
-36
-33
-30
-28
-26
-25
-23
-21
-19
-17
-15
-13
-11
-10
-9
-9
-8
-8
-9
-9
-9
-10
-10
-10
-10
-9
-9
-8
-8
-7
-6
-5
-5
-5
-5
-6
-7
-7
-7
-7
-7
-6
-5
-5
-5
-5
-5
-6
-7
-9
-10
-11
-11
-12
-12
-12
-12
-12
-12
-12
-12
-13
-13
-13
-12
-11
-10
-8
-7
-6
-6
-5
-5
-5
-5
-6
-6
-5
-4
-3
0
4
8
14
21
27
31
34
35
33
31
26
21
14
6
-4
-13
-22
-29
-35
-39
-42
-43
-43
-42
-41
-39
-37
-35
-32
-28
-25
-21
-18
-16
-13
-11
-8
0
16
45
88
142
199
246
270
260
215
141
52
-36
-107
-155
-178
-178
-163
-139
-111
-83
-57
-37
-20
-8
1
7
11
14
16
17
17
17
17
18
18
19
21
22
23
25
26
28
30
32
34
36
39
41
44
47
51
55
60
65
69
73
77
80
82
82
82
81
80
77
74
68
60
48
33
14
-7
-29
-50
-70
-88
-103
-115
-123
-129
-132
-132
-130
-126
-119
-112
-103
-94
-85
-77
-69
-62
-56
-50
-46
-41
-37
-34
-30
-26
-23
-20
-18
-16
-15
-14
-14
-13
-11
-9
-7
-5
-4
-4
-3
-4
-5
-6
-6
-7
-8
-8
-8
-9
-9
-9
-8
-8
-7
-6
-5
-5
-4
-5
-5
-6
-7
-8
-8
-8
-8
-7
-6
-5
-4
-4
-4
-4
-3
-2
0
1
2
3
3
3
3
3
2
1
1
0
0
0
0
-1
-2
-2
-3
-3
-2
-1
0
2
3
4
5
6
8
10
13
18
22
26
29
31
31
30
27
23
18
11
2
-6
-15
-22
-27
-31
-33
-34
-33
-32
-31
-30
-28
-27
-25
-23
-21
-19
-17
-15
-13
-10
-6
1
14
37
72
117
165
206
229
223
185
121
40
-43
-115
-165
-191
-193
-176
-148
-114
-80
-49
-24
-4
10
19
25
29
30
31
31
32
32
32
31
31
29
28
26
26
26
26
27
29
32
34
36
39
42
45
48
51
54
57
61
64
67
71
74
77
80
82
83
82
81
78
72
64
53
38
21
1
-21
-43
-65
-85
-102
-115
-126
-132
-135
-135
-132
-127
-121
-114
-107
-100
-93
-86
-79
-72
-66
-59
-53
-47
-41
-36
-32
-28
-25
-22
-19
-16
-13
-10
-7
-6
-4
-4
-3
-2
-1
-1
0
1
1
2
2
2
3
3
2
2
1
1
1
0
0
-1
-2
-3
-4
-5
-6
-7
-8
-8
-8
-8
-8
-8
-8
-9
-9
-8
-8
-7
-7
-7
-8
-9
-9
-9
-9
-9
-8
-7
-6
-4
-3
-1
1
3
5
7
9
10
12
14
17
21
25
29
33
35
35
35
34
32
28
24
17
9
-1
-11
-21
-28
-34
-38
-39
-39
-38
-36
-34
-32
-30
-27
-25
-23
-22
-20
-18
-17
-15
-13
-8
3
24
57
103
157
211
249
261
238
182
101
11
-73
-139
-179
-193
-187
-166
-139
-109
-81
-56
-36
-22
-11
-4
1
4
7
8
10
12
13
15
17
20
22
23
24
24
24
24
24
25
26
27
30
32
35
37
40
44
47
51
54
57
61
63
66
68
70
71
72
71
69
65
57
47
33
17
-3
-23
-45
-66
-86
-103
-118
-128
-135
-138
-138
-136
-131
-125
-117
-109
-100
-91
-82
-73
-65
-58
-52
-47
-42
-37
-34
-30
-27
-25
-24
-22
-21
-19
-18
-16
-14
-13
-11
-10
-9
-7
-6
-4
-3
-3
-2
-2
-1
-1
0
2
4
6
8
9
10
9
8
7
6
5
4
4
3
3
2
2
1
0
-1
-1
-2
-2
-1
0
1
1
2
2
1
1
1
0
0
-1
-1
-2
-2
-2
-2
-2
-2
-2
-1
-1
-1
0
1
2
4
6
8
11
13
16
20
24
29
33
36
37
37
36
33
29
22
14
4
-7
-18
-28
-36
-42
-45
-47
-48
-47
-45
-43
-40
-37
-35
-32
-29
-26
-22
-20
-17
-15
-11
-4
11
37
78
130
187
236
264
260
220
149
61
-29
-106
-159
-187
-191
-177
-153
-124
-95
-69
-48
-32
-20
-11
-5
0
4
6
8
9
10
11
12
13
14
16
17
18
20
22
24
27
30
33
35
37
39
41
43
45
47
51
54
58
63
66
70
72
74
75
76
76
74
71
66
58
47
33
16
-4
-25
-46
-67
-87
-105
-119
-130
-136
-139
-139
-136
-130
-123
-114
-104
-94
-84
-75
-67
-59
-53
-48
-43
-39
-35
-32
-28
-25
-22
-19
-17
-15
-13
-12
-11
-11
-10
-10
-9
-8
-8
-7
-7
-6
-5
-4
-3
-3
-3
-2
-2
-2
-1
0
1
2
3
3
4
4
4
4
4
4
3
3
3
2
2
1
1
0
-1
-2
-3
-4
-4
-5
-5
-6
-6
-6
-5
-5
-4
-2
-1
1
1
2
1
0
-1
-2
-2
-2
-1
1
3
5
8
10
13
16
19
24
28
33
36
38
39
38
36
33
28
22
15
6
-4
-14
-23
-30
-35
-38
-39
-39
-39
-38
-36
-33
-30
-27
-24
-21
-18
-15
-12
-9
-6
-3
5
19
45
84
136
193
244
276
277
242
175
89
-2
-82
-140
-173
-182
-173
-152
-126
-98
-72
-50
-32
-19
-9
-2
4
8
11
14
18
20
22
24
26
27
28
29
29
29
30
32
34
36
38
40
42
44
47
50
53
57
62
66
70
74
78
81
85
88
90
91
90
87
83
76
67
55
41
24
5
-15
-36
-56
-75
-92
-106
-116
-123
-126
-126
-124
-120
-114
-107
-99
-91
-83
-74
-66
-59
-52
-46
-40
-35
-31
-27
-24
-22
-20
-19
-17
-16
-14
-13
-11
-9
-8
-6
-5
-3
-2
0
1
1
2
2
2
2
3
3
4
5
5
5
5
5
5
5
5
4
4
4
4
4
4
4
3
3
2
2
3
3
3
3
3
3
3
2
2
2
2
3
3
3
3
3
2
3
3
4
4
5
5
4
4
3
2
1
1
1
1
2
4
6
9
13
17
22
27
31
35
37
38
39
39
38
35
29
22
12
1
-10
-20
-28
-33
-37
-39
-39
-38
-36
-33
-28
-23
-18
-13
-8
-4
-1
0
0
-1
0
0
1
9
26
58
104
159
215
257
275
258
207
130
41
-43
-110
-153
-170
-167
-150
-125
-98
-72
-49
-31
-17
-6
2
7
11
13
13
14
14
16
18
20
23
25
27
27
28
28
30
31
33
35
37
40
42
45
47
49
52
55
58
62
66
70
75
79
83
87
90
92
92
90
84
75
63
48
31
11
-9
-30
-51
-71
-90
-105
-117
-125
-130
-131
-130
-127
-121
-114
-106
-97
-89
-80
-71
-64
-56
-50
-44
-39
-36
-33
-30
-27
-25
-23
-22
-20
-19
-17
-14
-12
-10
-8
-6
-5
-4
-4
-3
-3
-2
0
1
2
3
4
3
2
1
0
-1
-2
-2
-2
-1
0
1
1
1
0
-1
-2
-3
-4
-4
-5
-5
-5
-4
-4
-3
-2
-2
-1
-1
-1
-1
-1
-1
0
1
1
1
2
2
2
2
2
2
1
1
2
4
5
8
11
14
19
23
28
33
36
37
37
35
31
27
21
14
6
-3
-11
-18
-23
-28
-31
-32
-32
-32
-30
-27
-24
-21
-19
-16
-14
-12
-10
-8
-6
-4
-1
4
12
28
54
91
135
178
209
219
199
149
78
-4
-80
-141
-178
-191
-183
-159
-127
-91
-57
-28
-5
13
24
32
36
37
37
37
36
35
34
34
34
34
35
35
36
37
38
40
41
42
43
43
43
43
44
45
47
50
54
59
64
70
75
80
84
88
91
92
93
91
88
83
74
63
48
31
11
-11
-34
-57
-78
-98
-114
-128
-136
-141
-142
-139
-133
-126
-118
-109
-101
-93
-85
-79
-72
-65
-59
-54
-49
-45
-42
-39
-35
-31
-28
-24
-21
-19
-18
-17
-16
-14
-13
-11
-9
-7
-6
-4
-3
-2
-2
-1
0
1
2
4
5
6
8
9
9
9
8
6
4
2
0
-1
-2
-3
-3
-4
-5
-5
-6
-6
-7
-7
-7
-6
-5
-5
-4
-3
-2
-1
1
2
3
4
5
7
9
12
15
19
23
27
30
32
32
30
28
24
20
14
8
1
-7
-15
-22
-28
-34
-37
-39
-38
-36
-33
-30
-28
-25
-23
-21
-19
-17
-14
-12
-9
-7
-4
1
11
30
61
106
160
213
254
269
250
198
120
30
-55
-123
-166
-184
-180
-160
-133
-103
-75
-50
-30
-14
-2
7
14
19
22
24
26
27
28
28
27
26
26
25
25
26
27
29
31
33
35
37
40
43
45
48
50
52
55
59
63
68
71
75
79
82
85
87
89
89
86
80
72
61
47
30
10
-12
-34
-56
-76
-93
-107
-117
-124
-127
-127
-124
-119
-112
-105
-97
-90
-82
-74
-67
-60
-54
-48
-44
-40
-36
-33
-29
-26
-22
-19
-16
-13
-12
-11
-11
-11
-11
-10
-9
-7
-5
-4
-2
-1
0
1
2
3
4
4
5
5
6
6
6
6
6
5
4
2
1
-1
-2
-3
-3
-3
-3
-3
-3
-3
-3
-4
-4
-4
-4
-4
-4
-4
-4
-4
-5
-5
-5
-5
-5
-5
-5
-4
-3
0
3
6
10
13
15
18
21
24
28
32
34
35
35
33
31
27
23
17
10
2
-6
-14
-20
-25
-29
-31
-32
-33
-32
-30
-27
-24
-22
-20
-17
-15
-13
-11
-9
-8
-6
-3
5
20
47
89
142
199
247
272
263
220
147
58
-30
-105
-156
-181
-184
-171
-147
-119
-92
-67
-46
-30
-17
-7
0
5
9
12
13
14
15
16
17
18
20
21
22
23
24
25
27
28
30
32
33
35
37
39
42
45
49
52
56
61
66
70
74
78
81
83
83
83
81
78
72
64
54
39
22
2
-20
-42
-63
-82
-98
-110
-120
-125
-128
-127
-124
-120
-114
-107
-99
-92
-84
-77
-70
-64
-58
-52
-47
-42
-37
-33
-30
-26
-24
-21
-19
-17
-16
-15
-15
-14
-13
-12
-11
-9
-8
-6
-5
-4
-4
-3
-3
-1
0
2
4
4
5
4
4
4
4
3
3
2
2
1
0
-1
-2
-2
-2
-2
-1
1
2
2
3
2
2
1
0
0
-1
0
0
1
1
2
3
4
5
6
6
6
6
6
6
7
7
8
10
12
13
16
18
21
25
29
33
36
38
39
38
36
33
28
22
15
7
-2
-11
-19
-26
-31
-33
-34
-33
-31
-28
-25
-21
-18
-14
-11
-9
-8
-7
-5
-4
-3
-1
5
18
42
81
132
188
239
270
271
236
170
84
-6
-84
-141
-173
-181
-170
-148
-120
-90
-63
-40
-22
-9
1
7
12
15
17
17
18
18
18
18
18
19
19
20
21
23
25
27
29
31
32
34
35
37
40
43
46
50
53
57
61
65
70
73
76
78
79
79
79
77
74
69
62
52
38
22
3
-19
-41
-63
-83
-101
-115
-126
-132
-135
-135
-131
-125
-117
-108
-100
-91
-83
-76
-68
-61
-53
-46
-40
-34
-29
-24
-20
-17
-14
-12
-11
-10
-10
-10
-10
-9
-8
-7
-6
-4
-2
1
3
5
6
6
6
5
5
4
4
4
4
4
4
4
4
3
3
2
2
1
0
-1
-1
-1
0
0
0
0
0
0
0
1
1
2
2
2
2
2
3
4
5
6
6
6
6
6
5
5
4
4
3
3
3
3
3
4
5
6
7
8
8
9
10
11
12
13
14
16
19
23
27
32
37
40
41
41
39
35
31
25
18
10
0
-10
-19
-26
-31
-33
-34
-33
-32
-30
-27
-25
-22
-19
-16
-12
-10
-7
-5
-3
-1
3
9
24
51
91
143
200
249
276
273
233
164
76
-13
-90
-144
-173
-179
-167
-146
-119
-92
-66
-44
-26
-12
-1
7
12
16
18
20
21
23
24
25
25
25
25
24
23
22
22
23
26
28
32
35
39
42
45
48
51
55
60
65
70
75
79
82
85
87
89
89
89
86
83
77
68
56
41
23
2
-21
-45
-68
-90
-109
-124
-135
-142
-145
-144
-141
-136
-129
-122
-113
-105
-96
-89
-82
-75
-68
-62
-56
-51
-46
-40
-36
-32
-28
-24
-21
-18
-16
-14
-12
-11
-10
-10
-9
-8
-7
-6
-5
-3
-1
1
2
4
5
6
7
8
9
9
10
11
11
12
12
12
12
12
12
12
11
11
11
10
10
11
11
11
12
12
13
13
13
13
13
12
11
11
11
10
9
8
7
6
6
5
5
5
4
4
4
5
5
6
6
7
9
10
12
14
16
17
20
23
27
30
33
35
36
36
35
32
28
22
15
7
-2
-10
-17
-22
-25
-27
-27
-26
-25
-23
-21
-19
-17
-15
-13
-12
-11
-10
-9
-9
-7
-3
7
27
60
105
158
207
239
244
216
157
77
-9
-87
-146
-180
-188
-176
-150
-116
-81
-48
-19
3
18
28
34
36
37
37
37
37
37
38
39
40
40
41
41
41
42
42
41
41
41
42
43
45
47
50
53
56
60
64
69
73
78
82
86
89
92
94
95
96
94
91
86
77
66
50
32
10
-13
-37
-59
-79
-95
-108
-117
-124
-126
-127
-125
-121
-116
-110
-103
-96
-88
-80
-72
-64
-57
-51
-45
-40
-35
-30
-27
-24
-22
-21
-20
-19
-19
-18
-16
-15
-13
-12
-10
-9
-8
-6
-5
-4
-3
-2
-2
-1
0
1
1
2
3
5
6
7
8
8
7
7
6
6
6
5
4
3
2
0
-2
-3
-4
-5
-5
-4
-4
-3
-3
-2
-3
-3
-3
-4
-4
-3
-2
0
2
5
7
10
12
15
18
21
25
30
33
36
37
36
34
30
24
18
10
2
-6
-14
-22
-29
-34
-37
-39
-39
-38
-37
-34
-31
-27
-23
-18
-14
-10
-8
-6
-5
-4
-2
2
10
27
54
93
140
186
220
232
214
164
92
10
-68
-131
-170
-184
-178
-155
-124
-90
-56
-28
-5
12
24
31
36
37
38
37
37
36
35
34
34
33
33
33
34
35
36
37
38
39
41
43
46
49
52
55
58
61
64
68
71
75
79
83
86
89
91
92
92
90
87
81
73
62
48
30
9
-13
-37
-59
-81
-100
-115
-127
-135
-139
-139
-136
-130
-122
-114
-106
-98
-91
-83
-75
-68
-60
-53
-47
-42
-37
-34
-31
-27
-24
-21
-18
-16
-14
-12
-9
-7
-4
-1
2
5
7
9
9
9
8
6
5
3
2
2
3
3
4
5
6
6
6
6
6
5
4
3
2
2
1
0
0
-1
-1
-2
-4
-5
-7
-7
-8
-8
-7
-7
-6
-5
-4
-4
-4
-3
-3
-2
0
2
6
9
13
17
19
22
24
27
30
33
34
35
34
31
27
22
16
9
2
-5
-12
-18
-23
-27
-30
-31
-31
-30
-28
-26
-23
-21
-19
-17
-14
-12
-10
-8
-5
-3
-1
4
13
32
65
111
166
220
261
275
256
202
123
33
-52
-119
-161
-178
-174
-155
-128
-99
-71
-47
-26
-11
1
9
14
17
19
20
21
22
23
24
25
26
27
28
29
30
31
32
32
33
34
36
38
40
43
47
52
57
63
68
74
78
82
86
89
91
92
92
91
90
86
80
71
59
44
26
5
-17
-40
-62
-82
-99
-112
-122
-128
-131
-131
-129
-124
-119
-111
-103
-95
-86
-78
-70
-62
-54
-47
-41
-37
-35
-33
-31
-29
-26
-24
-21
-19
-17
-14
-11
-9
-7
-5
-4
-3
-3
-4
-4
-5
-4
-4
-3
-2
-1
0
0
0
0
1
2
3
4
4
3
2
1
1
0
1
1
1
1
0
-1
-2
-3
-3
-3
-2
-1
1
2
2
3
3
3
3
4
5
6
6
6
6
6
6
7
8
9
11
13
15
17
19
21
25
30
35
40
43
46
45
43
41
37
32
27
20
12
3
-6
-14
-21
-27
-30
-31
-31
-29
-26
-23
-21
-19
-16
-14
-11
-8
-6
-4
-3
-2
0
5
18
41
78
129
186
241
277
285
256
194
110
20
-61
-121
-157
-169
-163
-145
-120
-94
-69
-47
-29
-14
-4
4
10
13
16
17
18
19
20
21
21
22
23
24
25
25
26
26
28
29
31
34
36
39
41
44
47
51
55
59
64
69
73
78
81
84
86
87
87
86
84
79
70
58
43
25
6
-16
-37
-58
-77
-93
-107
-117
-124
-128
-128
-126
-122
-115
-108
-99
-90
-82
-73
-65
-58
-51
-44
-38
-32
-27
-23
-19
-16
-13
-12
-11
-11
-11
-11
-11
-11
-10
-9
-7
-6
-4
-2
-1
1
3
4
5
6
7
8
9
10
11
12
13
14
15
15
15
14
14
13
12
11
10
9
7
6
5
3
2
0
-1
-2
-3
-3
-4
-4
-5
-6
-6
-6
-6
-6
-6
-6
-7
-8
-8
-8
-8
-6
-4
-2
1
3
6
9
13
17
21
24
26
26
25
23
21
17
13
7
-1
-9
-18
-27
-35
-40
-45
-47
-47
-47
-45
-42
-40
-37
-34
-31
-28
-24
-21
-17
-13
-10
-6
1
13
35
70
117
174
230
272
286
267
212
132
42
-43
-111
-153
-171
-167
-150
-124
-96
-69
-46
-28
-14
-5
1
4
5
5
4
4
3
3
4
5
7
10
13
16
19
21
25
28
32
35
38
41
44
47
50
53
57
61
65
68
71
74
77
79
81
81
82
81
79
76
71
64
54
41
25
6
-15
-36
-57
-76
-93
-107
-116
-122
-124
-122
-118
-112
-104
-95
-85
-76
-66
-56
-47
-38
-31
-24
-18
-13
-8
-5
-2
-1
0
-1
-1
-2
-2
-2
-3
-3
-5
-6
-8
-9
-10
-12
-12
-12
-12
-11
-11
-10
-9
-8
-8
-7
-7
-6
-6
-5
-5
-5
-4
-4
-4
-4
-5
-5
-5
-6
-6
-6
-6
-5
-3
-1
1
2
3
4
4
4
4
4
3
2
1
0
-1
-1
-1
-2
-2
-3
-4
-4
-4
-5
-5
-5
-5
-6
-5
-4
-1
3
8
12
14
16
16
14
12
9
5
-2
-9
-18
-27
-34
-39
-41
-41
-40
-38
-35
-32
-28
-25
-21
-18
-14
-11
-8
-5
-2
0
3
6
13
28
55
95
148
205
255
284
282
243
173
85
-5
-83
-138
-167
-171
-157
-133
-103
-73
-47
-25
-8
5
14
20
23
24
24
23
22
22
22
21
21
20
19
19
18
19
19
20
21
23
24
25
27
29
32
35
39
42
46
50
54
58
62
67
70
74
76
78
78
77
74
68
59
46
30
10
-12
-36
-60
-83
-103
-121
-134
-144
-149
-151
-150
-145
-139
-132
-123
-114
-104
-95
-85
-76
-68
-60
-53
-48
-43
-40
-37
-35
-32
-30
-27
-25
-23
-22
-21
-21
-22
-22
-23
-23
-22
-20
-18
-15
-12
-9
-7
-5
-3
-2
-1
-1
0
1
1
1
2
2
3
3
4
5
6
6
6
5
3
1
-2
-3
-4
-5
-5
-5
-5
-5
-6
-7
-9
-11
-13
-14
-15
-15
-14
-12
-10
-6
-2
3
9
16
22
28
34
37
38
37
35
30
23
15
6
-3
-12
-21
-27
-33
-36
-37
-37
-35
-33
-32
-30
-29
-27
-24
-22
-18
-15
-12
-10
-8
-6
0
13
35
68
111
157
197
217
210
171
106
25
-57
-127
-176
-198
-197
-178
-147
-110
-73
-40
-12
10
25
34
39
40
40
39
37
35
33
32
32
33
34
36
39
41
44
46
47
48
49
50
51
52
54
56
60
64
69
75
80
86
91
97
101
106
111
114
117
117
115
109
100
86
70
50
27
3
-22
-47
-69
-90
-106
-119
-128
-134
-135
-134
-130
-124
-117
-110
-101
-93
-84
-76
-69
-63
-58
-53
-49
0
0
-45
-40
-36
-32
-27
-22
-18
-14
-10
-7
-4
-1
2
5
8
11
13
16
18
20
22
23
24
25
24
23
22
21
20
20
19
18
17
16
15
14
13
13
12
11
10
9
8
6
4
2
0
-1
-2
-3
-4
-6
-9
-12
-16
-18
-18
-18
-17
-15
-13
-12
-11
-9
-7
-3
0
3
6
6
6
4
0
-4
-9
-14
-19
-24
-30
-35
-41
-45
-48
-49
-49
-48
-45
-42
-39
-36
-32
-28
-25
-22
-20
-18
-16
-13
-10
-4
10
34
71
121
176
228
261
264
233
170
85
-5
-85
-143
-176
-184
-174
-151
-122
-92
-64
-41
-22
-9
1
8
12
16
19
21
22
24
24
26
27
28
30
31
31
31
30
30
30
31
33
34
37
39
42
45
48
52
56
60
64
68
71
74
77
80
82
83
83
81
77
70
60
46
29
9
-13
-36
-59
-81
-100
-116
-128
-136
-139
-140
-138
-134
-128
-121
-113
-106
-97
-89
-81
-74
-68
-62
-57
-54
-51
-48
-46
-43
-40
-37
-35
-33
-31
-30
-28
-27
-25
-24
-23
-23
-23
-23
-23
-23
-23
-22
-21
-20
-18
-17
-14
-12
-10
-9
-8
-7
-6
-5
-4
-4
-4
-4
-5
-5
-6
-6
-6
-5
-3
-1
1
3
4
5
5
4
3
2
1
0
-1
-2
-2
-3
-3
-3
-2
0
2
4
6
8
10
13
17
22
27
32
35
37
38
37
36
33
30
24
18
10
1
-8
-17
-25
-31
-35
-37
-38
-37
-36
-35
-34
-32
-30
-28
-25
-21
-18
-14
-11
-8
-5
2
15
39
77
128
186
240
276
283
255
193
110
20
-62
-123
-160
-173
-167
-149
-124
-97
-71
-49
-31
-17
-7
-1
4
7
8
9
10
10
11
11
11
10
10
11
12
14
17
20
24
27
31
34
37
40
44
48
52
56
61
66
70
74
78
82
85
88
91
93
94
93
89
83
74
62
47
29
9
-13
-35
-56
-76
-93
-107
-117
-124
-127
-127
-125
-121
-115
-109
-102
-95
-87
-79
-71
-64
-58
-52
-46
-41
-38
-35
-32
-30
-28
-26
-25
-23
-22
-21
-20
-18
-17
-15
-14
-13
-11
-10
-9
-9
-8
-7
-6
-4
-2
1
3
4
6
7
8
9
10
10
11
11
11
10
10
9
8
6
3
1
-2
-4
-5
-6
-6
-7
-6
-6
-5
-4
-4
-4
-5
-6
-7
-8
-9
-8
-8
-6
-4
-2
0
2
3
4
5
8
11
16
20
25
28
29
29
27
24
21
16
10
3
-5
-12
-20
-26
-30
-32
-31
-29
-27
-24
-20
-17
-13
-9
-5
-2
1
4
6
8
10
11
13
20
35
62
104
157
214
262
286
278
233
160
70
-19
-94
-146
-172
-176
-164
-142
-115
-89
-64
-44
-28
-16
-8
-2
2
4
5
6
6
6
7
8
