6
7
9
12
15
19
22
25
28
29
28
25
20
12
3
-7
-14
-21
-25
-27
-26
-25
-23
-20
-18
-17
-18
-20
-25
-30
-29
-18
13
67
144
234
322
388
417
401
344
255
153
52
-35
-103
-151
-182
-198
-201
-195
-183
-167
-149
-131
-114
-97
-82
-67
-54
-43
-34
-27
-21
-16
-10
-3
3
9
14
18
21
25
28
32
36
40
44
49
55
61
68
77
85
94
101
107
111
112
111
108
102
93
79
63
42
19
-6
-32
-57
-81
-101
-117
-128
-134
-137
-136
-132
-125
-118
-110
-102
-94
-86
-77
-68
-60
-52
-45
-40
-35
-32
-28
-25
-21
-18
-13
-10
-8
-6
-5
-5
-5
-5
-6
-6
-7
-7
-7
-6
-5
-4
-2
0
1
2
2
2
2
2
2
1
-1
-3
-5
-6
-6
-5
-4
-2
-1
0
1
2
2
3
3
2
0
-2
-3
-3
-3
-3
-4
-5
-6
-6
-5
-3
-1
1
2
2
1
-1
-3
-5
-6
-7
-6
-5
-3
-2
-1
1
4
6
8
9
7
5
3
2
2
3
4
5
6
7
8
10
12
14
16
19
23
28
31
33
31
26
19
9
0
-8
-14
-19
-22
-24
-24
-23
-21
-20
-18
-18
-18
-19
-23
-27
-31
-27
-9
30
92
173
263
345
400
414
384
314
219
115
18
-62
-121
-160
-181
-189
-187
-178
-165
-150
-133
-116
-99
-83
-69
-57
-48
-40
-33
-27
-22
-17
-11
-5
1
7
12
17
21
25
28
32
35
39
46
53
62
71
79
86
91
94
97
99
102
105
106
104
100
92
81
66
47
24
-1
-27
-52
-76
-97
-115
-130
-140
-146
-148
-145
-139
-131
-121
-110
-99
-88
-77
-67
-58
-49
-41
-34
-29
-26
-25
-24
-24
-23
-22
-21
-19
-17
-13
-10
-8
-5
-4
-2
-1
1
1
2
2
3
3
2
2
2
2
2
2
3
3
2
1
-1
-3
-5
-7
-8
-7
-6
-5
-3
-1
0
0
0
0
0
0
0
-1
-2
-4
-6
-8
-10
-10
-10
-9
-7
-5
-3
-1
-1
-2
-2
-3
-4
-4
-5
-5
-5
-6
-6
-6
-6
-6
-6
-5
-3
-1
2
5
8
11
13
16
19
21
24
27
30
31
32
32
30
26
20
11
2
-7
-14
-20
-24
-25
-24
-22
-20
-18
-17
-18
-21
-25
-32
-38
-41
-34
-11
35
103
188
277
351
393
392
347
268
171
71
-17
-86
-136
-166
-181
-184
-178
-166
-151
-134
-117
-101
-85
-71
-60
-49
-41
-33
-26
-20
-14
-8
-2
2
6
10
13
17
20
24
28
33
37
42
47
52
59
66
74
82
89
94
98
102
105
107
107
106
102
95
83
65
43
17
-12
-42
-71
-98
-121
-139
-152
-157
-157
-152
-144
-133
-121
-109
-98
-89
-81
-74
-68
-62
-55
-48
-41
-35
-32
-31
-30
-30
-30
-27
-24
-20
-16
-12
-9
-6
-4
-3
-1
0
1
2
3
3
3
3
2
1
0
-1
-1
0
1
2
2
2
2
1
1
1
0
0
-1
-1
-1
-1
0
1
2
2
2
1
0
-2
-3
-4
-5
-5
-5
-4
-4
-4
-4
-3
-2
-1
1
3
6
7
7
6
5
3
2
1
-1
-1
-2
-2
-2
-1
-1
-2
-2
-1
0
2
4
7
10
13
16
18
21
24
26
29
31
32
31
29
25
19
11
3
-6
-13
-18
-21
-22
-22
-21
-20
-20
-20
-21
-21
-23
-27
-32
-34
-26
-1
48
121
210
301
375
415
410
361
276
174
71
-20
-92
-142
-174
-190
-193
-186
-173
-157
-140
-124
-109
-95
-82
-70
-58
-47
-37
-27
-19
-11
-5
1
6
10
14
16
18
20
21
22
25
29
35
42
52
61
71
79
87
93
98
102
106
110
111
112
109
104
94
81
63
41
15
-13
-41
-68
-92
-112
-128
-139
-144
-146
-144
-140
-134
-126
-118
-109
-99
-89
-79
-69
-60
-51
-43
-37
-33
-30
-28
-26
-24
-22
-19
-17
-14
-12
-10
-7
-5
-2
1
3
4
4
3
2
1
0
1
1
2
2
3
3
3
3
3
3
3
3
2
2
2
1
0
-1
-2
-4
-5
-5
-5
-4
-2
1
4
6
7
7
6
4
3
2
3
4
5
4
4
2
1
0
0
-1
0
0
1
1
-1
-2
-3
-3
-2
1
4
6
8
9
8
7
5
4
5
6
9
13
19
25
31
36
37
36
31
23
12
2
-7
-14
-18
-20
-21
-22
-22
-23
-23
-21
-20
-19
-20
-22
-26
-28
-23
-3
37
98
177
261
335
381
384
341
261
160
56
-34
-102
-148
-171
-178
-173
-160
-143
-126
-110
-95
-82
-70
-58
-48
-39
-31
-25
-19
-14
-11
-8
-4
1
6
12
18
24
30
35
39
42
45
47
51
56
63
71
79
86
92
97
102
105
108
109
108
106
100
92
79
61
39
14
-12
-37
-61
-83
-104
-122
-137
-148
-153
-153
-149
-142
-132
-122
-110
-99
-88
-78
-70
-63
-57
-52
-47
-41
-35
-29
-23
-18
-12
-8
-5
-5
-7
-9
-12
-14
-14
-13
-10
-6
-2
3
8
10
11
9
7
4
2
1
1
1
2
2
2
2
3
4
6
7
8
9
8
7
5
3
1
0
-1
-2
-2
-2
-1
0
1
1
-1
-3
-5
-6
-6
-5
-3
-1
3
6
11
16
21
26
30
34
35
34
30
23
15
6
-3
-10
-16
-20
-22
-22
-22
-21
-20
-19
-17
-16
-15
-17
-20
-23
-24
-16
5
42
96
160
223
271
290
273
224
151
70
-5
-64
-104
-125
-130
-126
-116
-104
-90
-77
-66
-56
-48
-41
-35
-29
-24
-18
-13
-8
-3
1
5
8
11
14
17
20
23
27
33
38
42
46
49
52
56
61
67
73
79
84
90
96
101
104
106
106
102
96
85
70
50
26
0
-26
-52
-75
-96
-114
-128
-137
-140
-140
-135
-128
-120
-113
-106
-99
-93
-85
-77
-69
-61
-54
-47
-42
-37
-32
-26
-20
-14
-10
-7
-5
-4
-4
-5
-5
-5
-4
-3
-2
0
2
5
7
9
11
11
9
7
5
4
3
3
2
2
1
0
-2
-3
-4
-4
-4
-2
-1
2
3
4
4
3
3
2
1
-1
-2
-3
-3
0
4
9
15
20
25
28
30
30
28
24
19
12
5
-3
-10
-17
-22
-25
-26
-25
-23
-21
-19
-18
-19
-22
-26
-28
-23
-5
32
90
163
242
308
348
348
308
235
146
54
-26
-87
-129
-153
-164
-164
-157
-145
-130
-113
-96
-81
-68
-58
-50
-43
-37
-30
-24
-19
-15
-10
-7
-3
1
5
9
14
18
22
27
32
38
43
49
53
56
59
63
68
73
79
84
89
92
93
92
89
82
73
60
43
23
1
-22
-46
-69
-89
-106
-118
-126
-130
-132
-131
-128
-124
-117
-109
-99
-89
-79
-69
-60
-52
-44
-37
-32
-29
-27
-25
-24
-21
-17
-13
-10
-7
-5
-4
-3
-3
-3
-3
-4
-4
-4
-4
-4
-4
-3
-3
-3
-2
-1
0
2
3
4
6
7
8
8
7
5
3
1
-1
-2
-4
-4
-5
-5
-4
-2
-1
-1
-1
-2
-3
-3
-1
3
9
16
23
30
35
37
36
32
25
17
8
0
-8
-14
-19
-22
-24
-24
-24
-22
-20
-18
-17
-18
-23
-30
-36
-36
-22
11
68
147
238
326
392
421
405
347
257
152
48
-43
-114
-163
-190
-201
-199
-189
-174
-156
-138
-120
-103
-88
-75
-63
-52
-42
-33
-25
-19
-14
-10
-6
-2
3
8
12
18
24
30
35
39
42
46
51
57
65
73
80
87
93
97
99
101
102
103
103
101
95
86
70
49
24
-5
-34
-61
-85
-105
-120
-130
-135
-137
-135
-131
-125
-116
-107
-98
-89
-81
-75
-69
-63
-57
-51
-45
-39
-34
-29
-25
-22
-19
-16
-12
-9
-6
-6
-6
-8
-9
-9
-9
-7
-5
-4
-2
-1
-1
-2
-2
-3
-2
-1
1
3
4
4
3
1
-1
-3
-4
-5
-5
-6
-6
-5
-4
-2
0
2
3
4
4
4
6
8
12
17
22
28
34
38
39
35
28
19
9
-1
-8
-14
-18
-20
-19
-18
-16
-15
-15
-14
-14
-15
-17
-21
-24
-21
-5
32
94
179
276
368
433
455
428
356
252
136
26
-68
-139
-186
-212
-221
-217
-204
-186
-167
-147
-129
-111
-96
-82
-69
-58
-48
-39
-30
-23
-17
-10
-5
1
7
11
17
21
26
30
34
38
42
47
53
59
66
73
80
87
94
100
106
110
112
113
112
106
96
82
62
38
11
-18
-48
-75
-99
-117
-131
-140
-145
-146
-144
-140
-133
-125
-115
-105
-95
-83
-72
-62
-52
-44
-38
-33
-30
-26
-24
-21
-19
-16
-13
-10
-8
-7
-7
-7
-8
-8
-7
-5
-3
0
3
5
6
6
5
3
1
0
-1
-1
-1
-1
0
1
1
1
1
1
0
0
1
1
1
2
2
2
2
2
2
3
5
6
6
4
3
2
3
7
12
18
23
28
31
32
30
26
19
10
1
-7
-14
-19
-21
-22
-21
-19
-17
-16
-16
-18
-20
-22
-26
-29
-30
-22
1
48
119
210
307
392
443
448
404
319
211
98
-6
-90
-151
-190
-211
-215
-208
-194
-175
-154
-134
-114
-95
-78
-64
-53
-45
-38
-33
-27
-22
-17
-12
-7
-3
2
8
13
20
26
33
39
46
53
59
65
71
77
81
86
90
93
96
99
103
105
105
103
97
87
72
53
29
3
-25
-53
-79
-103
-122
-136
-144
-147
-146
-142
-135
-128
-119
-109
-99
-90
-81
-74
-67
-61
-55
-49
-43
-38
-34
-30
-26
-23
-20
-17
-14
-12
-9
-6
-4
-2
-1
-1
0
0
0
0
1
1
1
1
-1
-2
-3
-3
-3
-2
-1
0
1
1
1
1
2
3
4
5
5
4
2
1
0
0
0
0
0
-1
-1
-2
-2
-2
-2
-1
0
2
5
8
12
16
21
25
30
35
37
37
33
26
17
7
-2
-9
-15
-18
-21
-22
-23
-25
-26
-26
-26
-25
-25
-27
-30
-31
-24
-1
44
115
208
307
393
446
451
408
323
215
101
-3
-87
-149
-188
-209
-213
-207
-192
-173
-152
-131
-112
-94
-79
-66
-55
-46
-38
-30
-23
-15
-8
-2
3
6
9
12
16
20
25
31
37
43
50
57
64
71
77
84
90
97
104
110
115
119
122
123
122
115
103
85
62
34
4
-27
-57
-85
-109
-128
-142
-151
-155
-153
-148
-140
-129
-118
-106
-95
-85
-76
-68
-60
-54
-49
-45
-41
-38
-34
-30
-26
-22
-18
-13
-9
-6
-4
-2
-2
-2
-2
-2
-1
-1
0
1
2
2
3
4
5
5
5
5
5
5
5
5
4
3
1
0
-2
-2
-3
-3
-3
-3
-4
-5
-6
-7
-7
-6
-3
-1
2
4
6
9
13
18
23
27
30
32
31
28
22
14
6
-4
-12
-19
-24
-28
-30
-31
-31
-29
-27
-25
-23
-23
-25
-30
-36
-40
-37
-18
25
96
188
291
383
444
458
421
339
229
111
2
-87
-152
-195
-218
-225
-221
-208
-190
-169
-148
-128
-108
-91
-76
-63
-51
-41
-33
-25
-20
-15
-11
-7
-2
4
9
15
20
26
32
38
44
49
54
58
64
70
78
85
94
101
109
115
119
121
119
114
106
93
76
55
30
1
-30
-60
-88
-112
-131
-145
-153
-156
-155
-150
-143
-134
-125
-115
-105
-96
-86
-78
-69
-61
-54
-47
-40
-34
-30
-27
-24
-22
-21
-19
-18
-17
-17
-16
-14
-12
-10
-9
-8
-7
-6
-4
-2
0
1
1
1
-1
-2
-3
-4
-4
-5
-7
-9
-11
-12
-12
-10
-8
-6
-4
-3
-3
-5
-7
-8
-9
-9
-8
-6
-3
1
7
12
18
23
27
29
30
28
25
21
14
6
-3
-11
-18
-22
-25
-26
-27
-27
-26
-25
-23
-21
-19
-18
-20
-24
-28
-27
-15
16
68
139
220
294
343
354
321
251
159
63
-24
-91
-137
-163
-172
-171
-161
-148
-131
-114
-97
-82
-68
-57
-49
-41
-35
-29
-24
-21
-19
-18
-16
-13
-9
-5
-1
4
10
16
22
28
33
38
44
51
59
66
73
78
81
83
86
88
91
93
95
93
89
78
63
42
18
-9
-37
-64
-89
-109
-126
-138
-145
-149
-149
-145
-139
-131
-121
-111
-100
-91
-82
-74
-67
-61
-55
-49
-44
-39
-35
-32
-30
-28
-27
-26
-25
-23
-21
-17
-13
-10
-7
-6
-5
-4
-3
-1
1
3
4
4
4
3
0
-3
-7
-11
-12
-12
-11
-9
-7
-6
-6
-6
-6
-5
-5
-4
-4
-4
-3
-2
1
3
7
10
12
14
16
15
12
8
3
-3
-9
-14
-20
-24
-27
-30
-30
-28
-26
-24
-22
-20
-19
-20
-23
-24
-22
-9
21
70
134
204
264
298
297
259
192
111
30
-40
-92
-126
-144
-150
-146
-137
-123
-109
-95
-81
-69
-59
-51
-44
-38
-33
-28
-23
-19
-14
-9
-4
1
6
10
14
18
22
26
30
35
40
45
51
56
61
67
73
80
86
92
96
97
97
97
95
91
83
72
56
36
13
-12
-37
-61
-83
-102
-119
-130
-137
-139
-137
-131
-123
-114
-105
-96
-87
-80
-73
-67
-61
-55
-49
-42
-37
-32
-29
-26
-25
-24
-23
-22
-20
-18
-14
-10
-7
-3
0
2
3
2
1
-1
-3
-4
-4
-4
-4
-4
-3
-2
1
3
5
7
8
8
7
5
3
1
-1
-3
-3
-3
-1
2
6
10
14
18
21
24
26
26
24
19
13
7
0
-7
-12
-17
-22
-24
-25
-25
-23
-20


-18
-17
-18
-22
-27
-32
-31
-19
12
65
139
225
306
365
388
366
304
215
115
20
-59
-119
-158
-179
-187
-184
-175
-161
-145
-129
-114
-99
-86
-74
-62
-51
-41
-33
-26
-21
-17
-13
-9
-6
-4
-2
0
3
7
11
15
20
25
30
35
39
44
51
58
67
76
83
88
92
92
90
83
72
56
37
15
-9
-34
-58
-80
-100
-115
-127
-135
-140
-143
-144
-142
-139
-134
-127
-120
-112
-106
-100
-94
-89
-83
-77
-71
-65
-59
-53
-47
-42
-38
-36
-36
-37
-40
-43
-45
-46
-45
-43
-41
-40
-38
-37
-36
-34
-33
-32
-32
-33
-35
-37
-39
-40
-40
-40
-40
-40
-41
-42
-43
-43
-43
-43
-42
-42
-41
-41
-41
-41
-40
-39
-37
-36
-36
-35
-35
-34
-33
-31
-28
-26
-24
-24
-23
-24
-25
-28
-33
-39
-46
-53
-60
-65
-68
-70
-71
-72
-72
-71
-69
-67
-65
-65
-68
-73
-78
-77
-61
-23
40
125
220
307
368
388
361
292
195
87
-17
-105
-172
-218
-245
-258
-258
-250
-236
-218
-199
-178
-158
-140
-123
-109
-97
-87
-78
-71
-65
-61
-57
-54
-52
-49
-45
-40
-34
-28
-21
-14
-8
-2
5
11
16
22
27
33
39
45
51
55
57
57
55
51
43
34
20
2
-21
-47
-74
-101
-126
-148
-164
-175
-182
-185
-183
-179
-173
-166
-158
-150
-141
-132
-123
-113
-104
-96
-89
-83
-79
-76
-74
-73
-71
-70
-67
-63
-59
-55
-51
-48
-47
-47
-48
-49
-50
-50
-49
-48
-48
-47
-47
-47
-47
-46
-46
-47
-48
-49
-50
-50
-49
-48
-46
-43
-41
-38
-35
-34
-33
-34
-35
-37
-38
-39
-40
-40
-40
-40
-40
-40
-40
-40
-41
-41
-42
-43
-42
-40
-37
-34
-32
-29
-26
-22
-17
-12
-7
-3
-1
0
0
-2
-6
-12
-20
-29
-38
-45
-49
-51
-52
-51
-50
-49
-49
-48
-47
-47
-48
-49
-52
-54
-51
-34
2
62
145
241
332
401
428
406
340
240
127
17
-77
-148
-195
-222
-230
-227
-215
-199
-182
-163
-144
-126
-109
-93
-79
-66
-56
-47
-39
-33
-26
-19
-13
-8
-3
1
4
8
12
16
20
26
34
43
52
61
68
73
78
82
86
90
93
95
95
95
92
86
78
65
47
26
2
-24
-50
-76
-100
-120
-137
-148
-155
-157
-155
-149
-139
-128
-115
-103
-92
-82
-73
-66
-59
-53
-47
-41
-36
-30
-25
-20
-16
-13
-12
-11
-10
-10
-10
-10
-10
-11
-11
-12
-11
-10
-9
-7
-5
-3
-1
1
3
3
3
3
3
3
3
3
3
3
3
4
4
5
7
8
9
10
10
10
8
7
7
6
5
4
3
2
1
0
0
1
3
6
9
12
13
13
12
10
8
6
4
4
5
6
7
7
8
9
10
11
14
18
24
31
38
44
47
45
39
30
20
9
-2
-10
-17
-21
-23
-23
-23
-21
-19
-15
-11
-8
-7
-8
-11
-15
-12
5
41
102
186
282
372
437
462
438
372
275
166
62
-28
-97
-144
-173
-186
-186
-176
-161
-143
-123
-104
-86
-69
-54
-41
-28
-17
-6
5
13
20
26
30
33
36
38
41
45
49
54
61
68
75
81
86
93
99
108
117
126
134
141
145
147
148
145
141
134
122
106
86
63
36
8
-20
-46
-69
-88
-102
-111
-117
-118
-117
-113
-106
-97
-87
-76
-66
-57
-48
-39
-31
-24
-17
-12
-7
-2
2
7
10
13
15
16
17
18
18
19
20
21
22
25
28
32
35
37
36
35
33
31
30
28
27
26
25
24
23
23
24
25
26
27
28
27
26
24
23
22
21
21
21
21
24
26
29
31
31
30
29
29
29
30
32
33
35
36
36
35
34
31
29
27
26
27
28
30
33
36
40
44
47
49
50
52
54
56
59
61
63
62
57
50
41
31
21
12
4
-2
-5
-5
-2
3
9
14
19
22
23
21
17
12
12
26
60
119
200
289
370
422
433
397
321
221
114
16
-61
-114
-144
-156
-155
-146
-133
-119
-105
-92
-79
-66
-55
-43
-33
-24
-15
-8
-2
4
10
16
21
27
32
37
42
47
52
57
62
67
71
75
79
83
87
91
95
100
106
113
120
126
130
132
130
123
112
96
76
53
27
0
-27
-55
-80
-102
-120
-131
-137
-137
-131
-123
-114
-105
-97
-90
-84
-78
-72
-65
-56
-47
-36
-26
-18
-12
-8
-8
-9
-10
-11
-10
-9
-7
-6
-4
-3
-2
-1
2
5
7
9
9
8
6
5
4
3
1
-1
-3
-4
-4
-3
-2
-2
-2
-3
-3
-4
-3
-3
-2
-2
-3
-5
-7
-7
-6
-5
-3
-3
-3
-4
-6
-8
-12
-15
-19
-21
-22
-22
-21
-20
-19
-18
-16
-14
-11
-8
-3
1
5
6
5
2
-1
-3
-4
-4
-2
0
2
3
3
2
-2
-7
-13
-18
-23
-26
-29
-33
-37
-42
-46
-48
-49
-48
-47
-48
-51
-54
-53
-42
-14
37
110
200
291
363
399
388
332
241
135
30
-60
-129
-176
-205
-218
-219
-210
-195
-176
-158
-142
-129
-118
-108
-98
-89
-80
-71
-62
-52
-44
-36
-31
-27
-25
-23
-19
-13
-5
4
12
19
23
25
27
31
35
43
53
66
78
89
97
101
103
101
99
95
90
81
66
45
18
-14
-48
-80
-107
-128
-144
-154
-161
-166
-167
-164
-157
-149
-138
-127
-115
-103
-89
-76
-63
-53
-47
-43
-41
-41
-42
-41
-40
-37
-34
-32
-30
-30
-30
-30
-29
-27
-25
-24
-22
-21
-20
-18
-16
-14
-13
-12
-13
-14
-16
-17
-18
-17
-14
-12
-10
-10
-12
-14
-16
-17
-17
-17
-16
-17
-17
-18
-17
-15
-13
-11
-10
-10
-10
-10
-10
-10
-10
-10
-10
-9
-8
-7
-6
-4
-3
-2
-2
-3
-6
-9
-12
-13
-11
-8
-5
-3
-2
-2
-3
-2
1
5
11
17
22
26
27
26
23
17
9
1
-8
-17
-24
-28
-31
-31
-30
-28
-26
-25
-25
-26
-28
-31
-35
-39
-40
-33
-11
33
102
190
285
368
421
428
388
309
206
97
-2
-84
-144
-183
-205
-212
-208
-196
-180
-161
-141
-122
-103
-85
-70
-57
-46
-38
-31
-26
-21
-17
-11
-6
-1
4
8
11
15
19
25
31
38
46
54
61
68
74
80
85
91
96
100
104
106
106
105
100
93
82
68
49
26
0
-29
-58
-87
-113
-134
-149
-158
-163
-163
-161
-156
-148
-138
-126
-113
-100
-89
-79
-70
-63
-57
-52
-48
-43
-39
-34
-31
-28
-27
-25
-24
-22
-20
-18
-16
-14
-12
-10
-8
-7
-7
-6
-5
-4
-3
-2
-1
-2
-4
-6
-6
-6
-6
-5
-4
-5
-6
-7
-8
-9
-9
-9
-8
-7
-5
-3
-1
1
0
-1
-3
-5
-6
-6
-6
-6
-6
-5
-3
1
5
9
14
18
22
25
27
29
30
31
31
31
30
27
22
16
7
-1
-8
-14
-16
-17
-17
-17
-16
-15
-14
-13
-12
-14
-19
-25
-29
-26
-8
32
95
175
259
330
369
366
320
240
143
45
-39
-101
-140
-160
-164
-157
-145
-130
-115
-101
-89
-77
-67
-57
-50
-42
-35
-28
-22
-16
-11
-7
-3
2
7
13
19
25
30
34
38
43
48
54
60
66
72
79
86
94
102
108
112
114
114
113
111
109
103
94
78
57
32
4
-26
-54
-81
-104
-124
-138
-149
-154
-156
-154
-148
-139
-128
-116
-104
-93
-82
-73
-66
-59
-53
-47
-41
-36
-31
-26
-22
-19
-16
-14
-12
-10
-8
-6
-3
-1
1
2
2
1
1
1
3
5
7
7
7
4
1
-2
-4
-5
-6
-7
-8
-9
-11
-12
-12
-11
-9
-7
-5
-3
-3
-3
-3
-3
-3
-3
-3
-3
-2
1
4
8
11
14
16
18
18
19
19
19
19
20
23
26
31
36
40
42
42
40
36
31
23
16
8
2
-4
-7
-8
-9
-8
-6
-4
-2
-2
-4
-10
-18
-26
-28
-19
11
66
147
244
340
416
452
439
379
285
176
68
-24
-96
-146
-177
-191
-193
-184
-170
-152
-131
-111
-90
-71
-54
-40
-30
-22
-17
-12
-7
-1
5
11
17
22
27
32
37
41
46
52
59
66
74
82
89
95
100
105
109
114
120
124
129
131
132
131
127
119
108
93
73
50
25
-3
-30
-55
-77
-95
-107
-114
-117
-115
-111
-104
-95
-86
-77
-68
-60
-52
-44
-37
-30
-24
-20
-16
-12
-8
-3
3
10
17
23
26
27
25
23
21
20
19
19
18
18
20
23
28
33
37
40
42
42
40
37
34
30
28
27
27
28
29
30
31
32
32
33
34
34
35
34
34
33
32
32
30
27
23
19
18
21
28
39
49
55
58
58
55
53
52
52
52
51
49
45
38
31
24
17
13
10
8
7
6
5
4
0
-4
-6
1
25
73
147
242
344
434
491
502
462
379
272
159
58
-21
-78
-114
-135
-144
-144
-137
-125
-111
-96
-81
-66
-52
-39
-27
-16
-6
4
12
21
31
40
48
54
58
61
62
64
66
70
74
80
85
90
95
101
108
115
124
131
138
143
145
145
143
140
134
126
115
101
81
58
31
3
-24
-50
-73
-93
-109
-119
-123
-123
-119
-111
-103
-94
-86
-79
-71
-64
-56
-47
-36
-26
-17
-10
-6
-5
-5
-4
-3
0
2
5
7
8
9
11
14
17
21
25
28
29
28
26
23
20
17
14
13
13
13
14
16
19
21
24
25
25
24
23
22
21
20
18
17
17
17
18
19
19
19
19
19
20
21
24
27
31
34
37
41
45
48
49
48
42
35
28
21
16
13
11
10
8
7
5
3
2
1
1
-1
-4
-9
-11
-5
17
62
134
226
327
416
473
485
447
367
261
147
41
-48
-115
-161
-186
-195
-191
-178
-161
-142
-122
-103
-85
-67
-51
-36
-23
-11
-2
6
12
18
23
26
29
31
32
35
39
45
51
57
64
71
79
86
93
101
110
120
130
139
145
148
148
146
143
139
132
121
105
85
60
31
1
-30
-59
-85
-106
-120
-128
-130
-128
-123
-115
-105
-94
-83
-71
-61
-50
-41
-33
-26
-22
-19
-18
-18
-18
-18
-17
-16
-12
-8
-2
5
11
17
21
25
26
26
24
21
18
16
14
14
15
15
15
14
14
14
16
17
19
20
20
20
20
20
21
22
23
25
26
26
26
25
23
21
21
22
25
31
37
42
48
51
52
50
46
39
31
22
13
6
0
-3
-5
-5
-4
-2
0
4
7
10
11
9
6
5
11
32
74
138
219
303
370
403
390
332
243
139
40
-43
-103
-140
-159
-163
-157
-145
-130
-115
-100
-84
-69
-54
-39
-27
-17
-9
-3
1
5
8
11
14
17
20
24
27
32
37
42
47
52
57
62
67
72
78
84
91
99
107
113
119
123
124
124
121
113
102
85
64
40
12
-16
-45
-71
-94
-112
-125
-134
-139
-142
-141
-137
-130
-120
-109
-98
-89
-82
-75
-69
-61
-52
-41
-29
-19
-10
-4
1
5
6
7
5
2
-2
-5
-7
-10
-13
-17
-21
-25
-27
-26
-22
-16
-6
7
20
31
37
39
36
31
25
21
18
16
14
11
7
0
-7
-12
-14
-11
-4
6
15
21
24
23
21
19
16
13
12
10
8
6
6
8
12
16
21
25
28
31
32
32
30
24
16
8
2
0
2
6
10
12
13
11
9
7
4
1
-3
-10
-20
-31
-39
-40
-24
15
80
169
268
361
425
447
418
345
242
128
21
-70
-137
-182
-206
-214
-211
-199
-184
-165
-146
-126
-107
-90
-74
-59
-47
-36
-29
-24
-22
-20
-18
-13
-6
2
9
14
19
23
29
37
46
55
62
68
71
73
75
77
79
83
88
95
102
108
111
110
105
96
83
66
46
22
-6
-36
-66
-93
-115
-130
-140
-144
-145
-143
-139
-133
-126
-118
-109
-99
-89
-78
-65
-52
-39
-26
-14
-3
6
12
16
14
9
-2
-15
-27
-34
-33
-24
-9
8
23
34
40
41
41
41
42
42
39
32
21
10
3
2
10
25
43
58
68
72
70
65
58
51
45
38
31
24
17
11
6
2
-1
-4
-6
-7
-8
-7
-5
1
8
14
16
12
4
-5
-13
-16
-15
-11
-6
-4
-6
-13
-24
-35
-45
-52
-54
-54
-51
-48
-43
-38
-33
-29
-26
-25
-26
-28
-33
-36
-32
-16
18
76
157
253
350
427
464
451
389
290
175
64
-30
-101
-149
-177
-189
-187
-177
-164
-150
-138
-127
-115
-102
-88
-72
-56
-42
-31
-23
-17
-11
-3
5
14
19
21
19
16
16
18
24
31
42
56
73
93
113
130
141
144
142
137
131
124
116
106
91
75
58
44
33
23
10
-9
-35
-66
-98
-127
-150
-168
-182
-190
-193
-190
-183
-173
-162
-151
-142
-134
-127
-122
-119
-117
-117
-115
-111
-104
-94
-83
-74
-68
-63
-60
-56
-51
-46
-41
-37
-35
-33
-32
-31
-27
-24
-23
-23
-25
-26
-25
-21
-17
-14
-13
-16
-19
-23
-27
-31
-34
-38
-39
-39
-36
-30
-23
-16
-10
-7
-7
-12
-18
-25
-31
-33
-33
-31
-28
-25
-22
-19
-16
-14
-12
-10
-10
-11
-16
-23
-28
-31
-26
-15
2
19
36
48
55
56
51
41
28
13
-2
-15
-26
-34
-38
-40
-39
-36
-30
-23
-17
-12
-8
-4
-2
-1
-4
-8
-9
1
31
87
167
259
346
410
437
417
355
261
152
45
-46
-113
-157
-181
-188
-183
-167


-145
-119
-95
-73
-57
-44
-34
-24
-16
-10
-5
-1
2
4
4
3
3
3
5
8
14
23
34
46
57
63
66
66
67
70
76
83
90
97
105
112
118
121
118
110
98
85
70
53
33
9
-19
-47
-73
-96
-114
-129
-142
-154
-161
-162
-157
-146
-132
-119
-108
-99
-91
-83
-77
-71
-66
-61
-56
-50
-45
-41
-38
-36
-33
-28
-22
-14
-7
-2
2
3
2
0
-1
-1
0
1
3
3
3
1
-2
-4
-6
-6
-7
-10
-15
-23
-32
-39
-43
-45
-44
-43
-43
-43
-43
-43
-42
-42
-41
-40
-38
-35
-32
-31
-31
-34
-38
-41
-44
-46
-47
-48
-48
-46
-42
-37
-33
-29
-26
-23
-19
-14
-9
-5
-2
0
1
0
-2
-6
-11
-19
-27
-37
-46
-55
-61
-63
-62
-58
-52
-47
-43
-43
-46
-52
-59
-65
-68
-61
-39
5
73
164
263
352
409
418
376
293
186
75
-24
-104
-160
-197
-218
-225
-221
-209
-193
-174
-155
-137
-120
-105
-90
-77
-66
-57
-50
-43
-35
-26
-18
-9
-2
4
8
10
12
14
17
19
22
26
32
40
51
62
71
79
84
89
95
102
108
111
109
101
91
78
61
42
19
-9
-39
-71
-102
-129
-150
-166
-176
-179
-177
-171
-161
-151
-143
-137
-132
-125
-118
-110
-103
-98
-93
-88
-82
-76
-70
-64
-58
-54
-50
-47
-43
-38
-34
-31
-28
-28
-30
-32
-34
-34
-33
-29
-23
-16
-10
-6
-7
-13
-23
-35
-46
-54
-57
-56
-55
-54
-54
-54
-54
-54
-53
-52
-53
-52
-51
-48
-43
-39
-36
-34
-34
-34
-32
-28
-25
-22
-20
-21
-23
-26
-29
-32
-33
-32
-31
-28
-27
-26
-24
-21
-16
-6
7
23
40
56
69
79
84
86
86
84
81
78
73
68
61
51
39
25
11
-2
-14
-25
-33
-39
-45
-49
-52
-54
-55
-55
-54
-51
-50
-50
-53
-57
-57
-48
-19
34
114
212
313
396
442
438
384
289
174
57
-46
-128
-185
-222
-239
-242
-233
-217
-197
-177
-158
-140
-122
-106
-91
-77
-65
-56
-48
-41
-35
-28
-22
-16
-10
-5
0
4
9
13
18
22
25
30
34
40
48
56
64
71
77
82
87
92
97
100
102
102
98
89
74
53
27
-4
-37
-69
-100
-126
-147
-163
-173
-178
-178
-174
-167
-157
-147
-136
-125
-114
-104
-95
-86
-78
-70
-62
-55
-49
-44
-41
-38
-35
-33
-31
-29
-28
-27
-26
-26
-27
-28
-29
-31
-33
-35
-36
-36
-34
-32
-28
-24
-20
-17
-14
-12
-13
-15
-18
-21
-23
-26
-28
-29
-30
-29
-27
-25
-23
-21
-21
-20
-21
-22
-23
-24
-26
-28
-30
-31
-32
-32
-31
-30
-28
-26
-25
-24
-23
-23
-23
-22
-20
-17
-14
-12
-11
-10
-8
-5
-1
4
8
12
14
16
16
15
12
8
2
-7
-16
-25
-34
-39
-43
-45
-46
-45
-44
-43
-42
-42
-43
-45
-46
-44
-32
-3
49
124
214
304
373
403
386
324
230
123
20
-67
-132
-174
-197
-205
-202
-191
-175
-157
-137
-118
-101
-86
-72
-61
-52
-43
-36
-30
-25
-22
-20
-18
-16
-14
-10
-6
0
6
13
21
28
34
40
46
52
58
65
72
79
87
94
101
107
111
112
111
105
95
80
61
38
11
-17
-46
-74
-99
-120
-137
-149
-155
-157
-156
-151
-143
-133
-122
-110
-99
-89
-79
-71
-64
-58
-54
-50
-47
-44
-40
-37
-33
-30
-27
-24
-20
-16
-11
-7
-4
-2
-1
0
1
2
3
5
6
7
8
8
8
6
4
2
0
-1
-1
0
2
4
6
8
9
9
7
4
1
-2
-4
-5
-6
-7
-7
-7
-6
-5
-3
-2
-2
-1
-2
-2
-3
-3
-3
-3
-2
1
4
8
11
15
19
22
25
27
28
29
28
26
22
17
10
4
-3
-9
-13
-17
-19
-20
-19
-17
-14
-11
-9
-9
-11
-16
-23
-26
-20
5
54
128
220
317
397
443
441
391
304
197
87
-10
-87
-142
-175
-191
-193
-185
-173
-157
-140
-123
-107
-93
-79
-68
-58
-49
-42
-35
-28
-21
-16
-11
-6
-1
4
10
16
23
29
34
39
44
49
53
58
64
70
78
86
94
101
108
114
119
122
122
118
110
98
82
61
37
8
-22
-52
-81
-105
-124
-137
-144
-147
-145
-141
-134
-125
-114
-102
-90
-78
-66
-56
-48
-41
-37
-33
-30
-28
-26
-24
-22
-20
-17
-14
-11
-7
-3
1
3
4
5
6
7
7
8
10
11
12
12
12
11
9
6
4
3
2
2
3
4
5
7
9
11
13
14
15
15
14
12
10
8
5
4
2
3
4
5
7
10
12
14
15
15
15
14
13
12
12
12
12
14
15
17
18
20
22
24
27
30
33
35
37
37
34
30
24
17
9
1
-5
-10
-13
-15
-16
-14
-13
-11
-9
-8
-9
-13
-18
-19
-7
25
85
170
270
369
445
479
463
399
299
182
66
-35
-113
-167
-199
-213
-214
-204
-189
-171
-152
-133
-115
-99
-83
-68
-54
-41
-30
-20
-11
-2
6
13
18
22
25
27
30
34
38
42
47
52
58
65
72
80
87
94
101
108
114
119
123
126
127
125
120
110
96
76
52
26
-3
-32
-60
-85
-106
-122
-134
-141
-145
-146
-143
-138
-130
-121
-110
-99
-86
-72
-57
-44
-34
-26
-22
-20
-18
-16
-14
-12
-9
-6
-2
2
6
10
13
15
16
16
17
17
18
19
20
21
21
22
23
25
27
27
26
24
20
16
13
12
12
15
19
22
25
27
27
27
26
23
20
16
12
8
6
5
4
4
5
7
9
10
10
9
7
6
7
8
11
13
17
20
23
26
30
34
39
42
44
44
41
37
30
22
14
7
2
-2
-6
-8
-11
-13
-15
-17
-18
-19
-20
-23
-27
-32
-34
-27
-3
45
119
211
306
384
426
420
366
275
165
53
-45
-121
-173
-203
-216
-215
-205
-189
-169
-149
-129
-111
-94
-78
-63
-51
-40
-31
-23
-16
-10
-4
1
6
10
13
18
22
27
32
37
42
48
55
62
69
77
84
92
100
108
114
119
122
124
123
120
115
106
94
77
58
36
12
-14
-41
-67
-91
-110
-124
-131
-133
-130
-124
-115
-104
-93
-82
-72
-63
-55
-48
-42
-36
-32
-27
-24
-19
-13
-7
-2
2
4
6
7
8
10
12
15
18
21
24
25
25
25
23
20
17
15
13
12
12
12
14
16
17
18
19
18
18
16
14
12
9
7
6
6
6
8
9
10
10
11
11
12
12
12
12
11
10
11
13
18
23
30
38
47
55
62
66
67
64
57
47
36
24
12
2
-4
-7
-7
-4
0
4
6
6
5
1
-4
-9
-12
-10
5
37
92
166
250
326
377
390
359
291
201
104
15
-56
-107
-137
-150
-150
-142
-128
-111
-93
-76
-60
-46
-32
-20
-9
-1
5
9
11
12
13
15
17
19
23
27
34
41
49
57
64
71
76
81
84
87
90
93
97
101
107
113
119
125
129
132
131
127
117
104
84
60
33
3
-26
-54
-77
-97
-111
-121
-125
-125
-121
-114
-107
-98
-90
-81
-70
-60
-50
-41
-34
-28
-24
-20
-17
-13
-10
-7
-4
-1
2
6
10
14
18
21
24
26
27
29
31
33
35
35
33
31
27
25
23
23
24
25
26
27
27
27
27
27
26
24
22
19
18
17
17
17
16
15
14
15
17
20
24
28
31
32
32
31
29
27
26
27
29
33
38
44
48
50
48
43
37
30
23
16
11
6
3
0
-2
-2
-1
0
1
1
-1
-5
-8
-7
7
41
97
175
266
352
415
439
417
353
260
155
55
-29
-93
-136
-160
-170
-169
-159
-145
-128
-110
-93
-78
-65
-54
-43
-34
-24
-15
-6
2
9
15
19
22
24
26
29
32
36
41
45
49
53
57
63
69
77
86
95
103
109
114
116
117
118
117
116
113
106
95
79
58
34
8
-17
-40
-62
-82
-98
-112
-120
-124
-123
-117
-109
-100
-91
-81
-71
-62
-54
-47
-40
-35
-30
-26
-21
-16
-12
-8
-5
-4
-4
-4
-3
-1
1
2
2
3
3
4
6
8
11
14
17
19
19
17
14
10
7
5
4
4
5
6
6
7
8
10
11
12
13
13
12
9
5
1
-2
-3
-3
-1
2
4
7
10
13
15
17
18
19
21
22
23
23
22
22
21
23
26
30
35
37
36
32
26
18
11
4
-2
-6
-8
-10
-11
-11
-10
-10
-9
-9
-12
-16
-22
-22
-11
20
76
156
251
345
418
453
439
379
285
176
67
-27
-101
-153
-184
-199
-201
-193
-179
-162
-143
-125
-107
-90
-76
-64
-53
-44
-36
-28
-23
-18
-14
-11
-7
-3
2
8
15
23
31
38
44
48
52
55
60
67
74
82
90
98
106
111
114
116
115
113
107
98
86
69
48
25
-1
-28
-54
-79
-101
-119
-131
-140
-142
-141
-135
-127
-118
-108
-98
-89
-79
-70
-61
-52
-43
-36
-31
-27
-26
-25
-24
-22
-20
-17
-14
-10
-5
-1
3
5
6
6
5
4
3
2
3
4
6
7
7
6
4
2
1
-1
-1
-2
-2
-2
-3
-3
-2
-1
2
3
4
3
1
-2
-6
-8
-10
-11
-11
-10
-9
-8
-6
-4
-2
1
3
4
3
2
0
-1
0
1
3
3
4
3
3
3
4
5
5
5
4
4
5
7
9
12
14
17
20
23
27
30
31
30
25
17
7
-4
-13
-20
-24
-26
-26
-24
-21
-17
-13
-9
-7
-8
-13
-21
-27
-25
-7
35
103
193
291
378
434
446
408
329
223
110
6
-80
-144
-185
-207
-213
-208
-195
-178
-159
-141
-123
-105
-89
-73
-59
-47
-38
-31
-26
-23
-20
-16
-11
-6
0
6
12
18
24
30
37
44
51
57
61
64
67
70
75
82
89
96
103
109
112
113
112
108
99
87
69
47
20
-9
-39
-66
-90
-109
-124
-133
-138
-139
-137
-132
-124
-115
-105
-95
-86
-78
-70
-63
-57
-51
-46
-40
-35
-29
-23
-18
-13
-9
-6
-4
-4
-5
-6
-7
-7
-7
-7
-6
-4
-2
2
5
8
8
7
5
3
1
0
1
2
4
6
9
12
14
14
13
10
7
5
3
2
3
3
5
6
8
10
11
11
10
9
7
5
3
3
4
6
8
9
10
11
11
12
13
15
16
17
17
17
18
21
24
27
29
29
27
23
17
11
4
-4
-11
-17
-21
-24
-25
-26
-27
-28
-31
-33
-35
-36
-38
-39
-34
-18
15
69
143
226
303
357
373
345
279
189
93
5
-64
-111
-138
-149
-149
-142
-133
-122
-111
-99
-87
-76
-65
-55
-45
-37
-28
-21
-14
-7
-1
5
10
14
19
23
27
31
35
38
41
43
47
50
54
60
66
72
79
84
89
93
95
96
97
98
97
94
87
75
57
35
11
-14
-39
-63
-83
-101
-115
-126
-133
-136
-137
-135
-131
-125
-119
-111
-101
-90
-78
-66
-55
-46
-38
-33
-29
-26
-24
-21
-17
-12
-9
-6
-5
-4
-5
-5
-5
-4
-3
-2
-1
0
1
1
1
1
0
0
1
1
1
2
2
2
1
1
1
1
0
-1
-3
-5
-7
-8
-9
-8
-7
-5
-2
1
2
2
1
-3
-6
-10
-12
-14
-14
-12
-10
-7
-4
0
5
8
11
13
14
15
18
23
29
34
38
41
41
38
33
26
18
9
0
-8
-14
-19
-22
-24
-24
-24
-23
-21
-19
-17
-17
-20
-26
-32
-32
-20
13
70
151
245
336
404
432
413
350
256
148
43
-47
-117
-165
-194
-206
-206
-196
-180
-160
-139
-118
-99
-83
-70
-60
-51
-43
-36
-28
-21
-13
-6
0
5
9
13
18
22
26
29
31
34
36
40
46
53
60
68
76
84
92
99
105
109
111
110
107
101
93
81
66
46
23
-3
-30
-56
-80
-100
-117
-129
-137
-140
-140
-136
-128
-119
-107
-96
-86
-78
-71
-66
-60
-53
-45
-38
-32
-29
-27
-26
-24
-23
-21
-19
-17
-15
-13
-11
-9
-7
-5
-2
1
2
3
3
2
1
0
-1
-3
-4
-4
-5
-5
-5
-5
-5
-6
-7
-8
-9
-10
-10
-11
-11
-11
-11
-10
-10
-9
-10
-10
-10
-11
-10
-10
-9
-8
-7
-6
-5
-3
-1
2
4
6
7
6
5
5
6
9
13
17
20
21
22
23
22
21
19
14
9
3
-2
-6
-9
-12
-16
-19
-21
-22
-22
-23
-25
-30
-37
-43
-43
-31
1
57
137
234
330
406
443
432
373
278
167
56
-39
-113
-164
-194
-208
-209
-201
-188
-170
-152
-134
-116
-101
-87
-74
-60
-47
-35
-24
-17
-12
-10
-9
-8
-8
-6
-2
4
10
18
26
32
37
41
46
52
59
66
74
80
84
88
92
94
96
96
95
90
82
69
51
28
2
-25
-51
-76
-98
-116
-131
-143
-150
-152
-150
-145
-138
-128
-119
-109
-100
-92
-84
-77
-69
-62
-54
-48
-42
-38
-34
-29
-25
-21
-18
-15
-14
-15
-16
-18
-20
-22
-24
-25
-25
-25
-24
-23
-21
-19
-16
-13
-11
-9
-9
-10
-12
-14
-16
-19
-21
-22
-22
-22
-22
-21
-20
-19
-18
-17
-18
-19
-22
-26
-30
-34
-36
-38
-38
-38
-37
-35
-33
-31
-30
-30
-30
-31
-32
-33
-32
-31
-28
-25
-21
-19
-18
-20
-24
-31
-38
-46
-53
-60
-65
-70
-73
-76
-77
-77
-76
-75
-75
-76
-79
-80
-75
-56
-15
51
139
236
325
384


399
365
288
184
71
-36
-125
-192
-238
-264
-274
-272
-262
-247
-231
-213
-195
-178
-161
-146
-133
-122
-112
-104
-97
-91
-85
-80
-75
-69
-64
-58
-53
-48
-44
-40
-36
-32
-27
-21
-15
-9
-3
5
12
20
26
30
31
31
31
30
27
23
16
4
-12
-33
-57
-84
-113
-141
-166
-188
-205
-217
-225
-227
-225
-218
-209
-199
-188
-178
-168
-159
-150
-143
-136
-129
-123
-116
-111
-107
-103
-100
-98
-95
-93
-89
-85
-81
-78
-77
-77
-79
-82
-86
-89
-90
-89
-87
-84
-80
-77
-74
-71
-70
-70
-70
-70
-71
-71
-72
-72
-73
-74
-75
-75
-75
-76
-77
-78
-80
-80
-79
-76
-72
-68
-66
-65
-65
-66
-67
-67
-67
-68
-69
-70
-70
-71
-72
-72
-72
-71
-69
-65
-61
-56
-53
-51
-50
-51
-51
-49
-46
-42
-38
-35
-34
-36
-41
-47
-55
-64
-72
-79
-84
-86
-85
-83
-79
-76
-73
-73
-75
-80
-86
-91
-88
-71
-34
30
118
220
318
391
420
398
328
224
107
-7
-103
-175
-223
-250
-261
-259
-249
-234
-217
-197
-178
-158
-139
-123
-109
-98
-88
-80
-73
-68
-62
-57
-52
-47
-41
-36
-31
-25
-20
-13
-6
2
9
16
22
27
32
36
41
47
52
58
63
67
69
70
69
66
59
49
35
17
-5
-28
-52
-76
-98
-119
-135
-148
-157
-162
-164
-162
-158
-151
-142
-132
-121
-111
-100
-89
-79
-70
-63
-59
-58
-57
-56
-54
-51
-48
-44
-41
-38
-34
-29
-25
-21
-20
-21
-23
-26
-28
-29
-29
-30
-30
-31
-33
-33
-33
-31
-29
-27
-26
-26
-27
-29
-31
-32
-33
-33
-34
-34
-34
-34
-33
-33
-32
-31
-30
-29
-30
-31
-32
-33
-33
-34
-34
-34
-34
-34
-32
-29
-26
-24
-23
-23
-24
-24
-24
-23
-21
-18
-14
-9
-6
-4
-5
-8
-13
-19
-24
-29
-33
-35
-35
-34
-32
-30
-30
-31
-34
-38
-42
-47
-51
-49
-37
-9
40
110
190
266
320
339
315
253
166
69
-20
-93
-145
-175
-189
-190
-181
-167
-150
-133
-118
-105
-95
-86
-79
-72
-66
-61
-55
-50
-46
-42
-38
-34
-31
-27
-23
-20
-16
-10
-4
3
10
17
23
28
33
38
42
47
52
58
63
69
75
79
81
80
76
67
56
40
21
-2
-26
-53
-79
-103
-123
-137
-147
-153
-154
-153
-149
-143
-136
-127
-117
-109
-101
-95
-89
-84
-79
-73
-67
-62
-56
-50
-45
-38
-33
-28
-24
-21
-20
-20
-20
-20
-19
-17
-14
-11
-9
-9
-9
-11
-13
-14
-13
-11
-9
-8
-7
-8
-8
-9
-8
-8
-7
-6
-4
-2
0
2
3
4
3
2
0
-2
-4
-5
-5
-5
-3
-1
3
6
8
9
10
10
12
15
19
22
25
28
30
32
32
29
25
18
11
5
0
-4
-6
-7
-6
-4
-1
1
2
2
-1
-5
-11
-17
-18
-8
19
69
140
225
308
373
402
388
331
245
146
49
-34
-97
-140
-166
-176
-175
-166
-151
-133
-115
-97
-82
-67
-54
-42
-31
-20
-11
-3
3
9
15
21
27
33
36
39
41
43
45
49
53
58
63
69
75
82
90
98
108
117
125
130
132
132
130
126
119
110
97
81
62
40
17
-6
-28
-48
-65
-79
-89
-94
-96
-95
-90
-82
-73
-63
-53
-44
-37
-31
-25
-20
-14
-9
-5
-1
1
3
5
7
10
14
19
24
29
33
35
36
37
36
36
36
36
37
38
39
40
41
42
42
43
44
45
46
47
48
49
49
48
46
45
43
41
40
38
37
37
36
37
37
38
39
40
40
40
38
37
36
35
35
36
37
39
40
43
45
48
49
51
53
54
56
57
59
61
63
64
65
63
60
54
47
41
36
32
30
29
29
31
32
34
35
35
34
31
26
23
26
42
78
136
215
304
385
439
454
422
352
257
154
58
-21
-78
-116
-136
-143
-141
-133
-121
-107
-91
-75
-58
-41
-26
-12
-1
9
16
21
25
28
31
34
39
45
50
56
61
66
70
73
76
79
82
86
92
98
104
110
116
122
127
133
139
144
147
146
142
132
118
100
79
55
29
3
-23
-46
-65
-78
-85
-88
-86
-82
-76
-67
-59
-50
-42
-35
-30
-24
-20
-16
-11
-6
-1
6
13
20
27
32
36
38
39
40
40
41
42
43
43
44
45
46
46
47
48
48
49
50
50
50
50
50
50
51
52
53
54
55
54
53
51
49
48
47
47
46
44
42
40
39
40
41
42
43
43
44
46
49
52
54
55
54
52
50
48
47
47
47
47
47
46
44
43
44
46
48
52
55
58
61
64
67
69
71
70
67
62
54
46
39
33
29
27
26
26
27
28
31
33
34
34
32
28
25
27
42
76
134
213
303
388
449
472
448
382
286
179
77
-10
-75
-119
-144
-154
-152
-141
-126
-107
-88
-69
-52
-37
-25
-14
-6
3
11
20
27
34
38
42
46
49
53
56
61
66
72
78
85
91
96
102
107
111
115
119
122
126
129
132
135
136
136
134
130
124
113
99
81
58
33
6
-19
-42
-61
-76
-86
-92
-94
-93
-90
-84
-78
-71
-62
-52
-42
-32
-23
-16
-9
-5
-2
0
1
3
7
13
20
26
31
34
36
36
35
34
34
34
35
35
34
33
32
31
31
30
30
31
31
32
33
34
35
36
36
36
36
35
34
33
32
31
31
30
29
28
29
30
31
33
36
38
39
40
40
40
38
36
34
32
31
30
29
30
31
31
32
32
33
33
35
37
39
41
44
47
49
50
51
53
54
54
55
55
54
53
51
47
43
39
36
32
28
26
23
21
19
17
14
11
9
7
4
1
-2
2
20
58
121
203
293
373
423
431
393
317
218
115
22
-53
-106
-139
-156
-160
-156
-145
-130
-113
-95
-78
-60
-44
-30
-18
-9
-1
4
9
12
16
20
24
27
31
33
35
38
41
46
50
55
60
65
70
75
80
86
93
99
105
110
114
116
117
116
113
108
100
88
72
51
27
3
-22
-45
-65
-81
-94
-102
-107
-109
-107
-104
-98
-91
-83
-74
-66
-58
-52
-47
-42
-38
-33
-28
-24
-20
-17
-13
-8
-3
1
5
7
8
8
9
10
12
14
16
17
19
20
22
23
23
24
24
23
21
19
17
14
13
12
12
12
13
13
13
13
12
12
11
11
11
11
11
12
12
12
12
11
10
8
6
5
4
4
6
10
14
18
20
21
21
19
17
16
15
16
19
23
29
35
41
45
46
43
38
30
20
10
2
-5
-9
-11
-12
-12
-11
-10
-8
-7
-9
-12
-17
-20
-18
-3
30
85
160
245
324
378
394
366
300
210
111
19
-55
-109
-141
-156
-159
-153
-143
-132
-119
-106
-93
-80
-67
-56
-46
-37
-30
-22
-15
-7
-1
5
9
13
18
22
27
31
36
39
44
48
53
57
61
64
68
72
77
83
89
95
102
109
114
116
115
110
100
85
65
42
16
-11
-36
-59
-79
-95
-109
-119
-126
-129
-129
-127
-122
-115
-106
-95
-84
-73
-63
-53
-45
-38
-33
-29
-27
-26
-25
-24
-21
-18
-16
-13
-11
-8
-6
-3
-1
1
2
3
5
7
8
8
7
7
6
6
7
9
11
11
11
9
6
3
-1
-3
-4
-5
-4
-3
-2
-1
0
1
0
-1
-2
-3
-4
-4
-4
-4
-4
-4
-4
-4
-2
1
4
6
8
8
8
8
8
9
11
14
18
21
22
22
22
21
20
20
19
20
22
25
29
33
35
34
30
24
16
6
-3
-12
-19
-23
-24
-23
-21
-19
-17
-15
-14
-16
-19
-21
-18
-4
29
85
162
252
337
400
423
401
337
244
139
37
-49
-115
-159
-185
-194
-192
-182
-168
-151
-134
-116
-100
-84
-70
-59
-49
-41
-34
-28
-23
-18
-13
-7
-1
5
11
18
23
28
32
35
38
42
47
52
58
65
71
77
82
87
92
96
99
101
101
99
94
85
74
60
41
19
-5
-28
-51
-71
-88
-102
-113
-122
-127
-128
-126
-122
-115
-108
-99
-90
-81
-72
-65
-58
-52
-46
-41
-36
-31
-25
-21
-17
-14
-13
-13
-14
-14
-14
-14
-14
-14
-14
-13
-11
-9
-6
-3
1
4
6
8
7
6
4
2
-1
-3
-4
-5
-4
-3
-1
0
1
1
1
2
2
3
4
4
4
4
4
3
1
-1
-2
-2
-1
1
3
3
2
0
-1
-1
-1
0
0
0
0
0
0
0
1
3
4
5
6
7
9
12
15
19
23
26
27
26
22
18
11
5
-1
-5
-10
-13
-16
-19
-20
-20
-20
-19
-20
-22
-26
-31
-31
-21
6
56
130
219
311
385
423
417
364
277
172
65
-29
-103
-155
-187
-203
-205
-198
-185
-167
-148
-127
-109
-92
-77
-64
-53
-44
-36
-30
-25
-21
-18
-16
-13
-10
-7
-3
3
10
19
26
33
38
42
45
49
53
57
63
68
74
81
87
94
98
100
98
94
87
76
63
45
24
-1
-27
-52
-76
-96
-112
-125
-134
-140
-141
-140
-135
-129
-120
-110
-98
-87
-76
-66
-58
-51
-45
-40
-36
-32
-30
-27
-25
-23
-21
-18
-16
-14
-12
-10
-8
-6
-4
-3
-2
-1
-1
0
1
1
1
1
1
0
-1
-1
-2
-1
0
3
4
5
4
2
-2
-5
-7
-9
-9
-10
-9
-8
-7
-6
-4
-2
-1
1
3
5
6
7
7
6
4
2
0
-2
-3
-4
-3
-1
3
10
17
24
28
30
27
21
14
5
-3
-10
-16
-21
-23
-24
-24
-24
-24
-25
-25
-26
-26
-27
-29
-30
-27
-13
18
70
142
223
296
343
353
321
253
165
71
-14
-82
-130
-159
-173
-174
-167
-154
-139
-122
-107
-92
-79
-67
-56
-45
-35
-27
-21
-16
-13
-10
-8
-6
-2
2
6
11
14
17
20
22
25
29
35
41
49
56
63
70
75
79
83
86
89
90
90
87
82
73
61
45
26
4
-20
-46
-72
-97
-118
-135
-146
-151
-151
-146
-139
-130
-120
-111
-102
-93
-84
-75
-66
-58
-52
-47
-43
-40
-37
-34
-31
-29
-27
-24
-21
-16
-11
-6
-2
0
0
-2
-4
-5
-6
-6
-5
-4
-3
-3
-4
-5
-4
-3
0
2
2
1
-2
-5
-8
-10
-10
-10
-9
-7
-6
-5
-5
-5
-5
-5
-5
-5
-4
-4
-4
-4
-4
-5
-5
-3
-2
0
2
2
2
2
4
7
11
15
19
22
23
23
22
20
17
12
7
0
-6
-12
-17
-21
-23
-24
-25
-24
-24
-25
-28
-33
-39
-46
-49
-44
-22
20
85
169
259
338
388
397
361
287
190
87
-7
-84
-139
-174
-192
-196
-191
-181
-167
-152
-136
-120
-104
-90
-78
-66
-56
-48
-39
-31
-22
-15
-9
-4
-1
3
6
9
13
17
20
23
27
31
36
41
48
55
63
69
76
81
85
88
91
92
93
92
89
83
74
60
41
18
-9
-38
-65
-88
-107
-120
-129
-135
-136
-135
-131
-125
-117
-107
-97
-86
-76
-67
-59
-52
-48
-45
-42
-40
-38
-36
-34
-32
-30
-26
-23
-19
-16
-13
-11
-10
-8
-6
-5
-4
-4
-4
-3
0
4
7
7
5
0
-5
-10
-16
-21
-27
-34
-40
-46
-52
-57
-61
-65
-69
-74
-78
-78
-70
-53
-32
-9
9
23
33
40
43
42
35
22
4
-18
-39
-56
-69
-80
-87
-94
-108
-134
-173
-215
-249
-265
-262
-244
-215
-178
-135
-87
-41
-2
24
40
54
73
96
117
131
138
139
135
128
120
111
102
94
84
75
61
45
37
51
97
174
270
365
437
467
448
380
276
156
38
-62
-139
-193
-229
-249
-254
-243
-221
-197
-174
-155
-135
-113
-94
-80
-68
-53
-28
2
29
48
60
70
83
98
109
114
112
106
99
94
90
84
82
84
90
96
97
94
92
94
100
105
109
111
112
112
108
98
82
60
36
12
-10
-32
-55
-78
-96
-105
-107
-107
-105
-103
-98
-92
-86
-81
-76
-70
-65
-58
-51
-46
-42
-37
-31
-26
-23
-21
-19
-15
-11
-8
-7
-7
-7
-7
-8
-9
-11
-11
-10
-8
-5
-4
-2
-1
-1
-2
-3
-4
-3
-3
-4
-5
-6
-5
-3
-1
2
4
5
5
6
5
3
2
1
0
-2
-3
-4
-4
-3
-2
-1
0
0
0
1
2
2
4
4
4
2
1
-1
-1
-3
-4
-4
-4
-4
-3
-2
-1
1
2
3
3
2
1
0
-2
-3
-4
-3
-1
4
10
16
19
21
23
25
28
29
28
23
16
7
-3
-11
-18
-22
-24
-24
-24
-23
-23
-21
-19
-17
-17
-19
-23
-27
-25
-14
14
65
137
223
307
371
396
377
314
221
116
18
-64
-122
-160
-182
-192
-191
-182
-165
-145
-125
-106
-90
-75
-61
-49
-40
-33
-28
-22
-17
-13
-12
-11
-9
-4
2
8
14
20
26
32
38
42
46
49
53
56
60
63
66
69
74
80
85
90
92
93
92
88
80
67
50
30
5
-23
-50
-76
-99
-117
-130
-138
-142
-141
-136
-129
-120
-110
-100
-92
-85
-79
-73
-68
-62
-56
-52
-48
-44
-40
-37
-33
-30
-27
-24
-20
-16
-11
-9
-10
-12
-13
-9
1
13
26
33
34
29
21
12
5
-2
-8
-13
-16
-18
-19
-19
-17
-15
-14
-13
-14
-15
-15
-16
-16
-17
-17
-17
-16
-14
-12
-10
-10
-10
-10
-11
-10
-9
-8
-7
-6
-6
-6
-6
-7
-7


-6
-5
-3
0
3
6
10
13
16
18
19
20
20
21
21
20
17
13
8
3
-2
-7
-10
-14
-17
-21
-23
-25
-25
-25
-26
-26
-27
-28
-29
-26
-13
15
61
125
196
260
301
307
274
209
125
39
-34
-89
-122
-138
-142
-137
-128
-117
-105
-93
-82
-70
-60
-50
-41
-35
-31
-26
-22
-18
-14
-9
-5
-1
1
3
6
9
12
17
22
26
30
34
37
41
46
51
58
65
73
80
85
89
90
89
86
84
80
74
64
49
29
5
-22
-48
-71
-91
-106
-116
-124
-128
-131
-132
-131
-128
-123
-115
-106
-94
-82
-71
-62
-55
-51
-47
-45
-43
-40
-38
-34
-30
-26
-21
-17
-14
-12
-10
-8
-7
-5
-4
-4
-5
-5
-5
-5
-4
-3
-2
-1
0
0
-1
-2
-4
-5
-6
-6
-5
-3
-1
1
1
0
-2
-3
-5
-6
-7
-8
-9
-9
-8
-7
-5
-2
0
2
4
6
9
11
13
14
16
17
18
19
20
19
16
9
-3
-20
-40
-58
-69
-72
-66
-53
-38
-22
-8
4
9
9
6
2
3
14
41
86
146
209
263
294
291
255
191
114
38
-28
-77
-107
-122
-125
-119
-110
-98
-87
-75
-65
-56
-49
-43
-39
-35
-32
-27
-22
-16
-10
-4
1
5
8
11
13
14
15
16
18
21
26
32
38
45
52
59
65
71
78
83
89
93
96
97
96
91
83
71
56
37
15
-9
-33
-56
-78
-96
-111
-123
-129
-131
-130
-125
-117
-109
-99
-91
-84
-78
-72
-69
-66
-63
-60
-56
-51
-46
-39
-32
-25
-18
-12
-8
-5
-4
-3
-2
-2
-2
-1
-2
-3
-5
-7
-9
-8
-6
-3
0
4
7
8
9
8
7
6
4
1
-1
-3
-4
-5
-5
-7
-8
-10
-11
-11
-11
-11
-10
-9
-7
-4
-2
1
3
5
6
6
5
5
4
4
5
6
8
11
14
16
17
17
14
9
2
-6
-12
-16
-18
-19
-18
-16
-14
-13
-12
-11
-12
-15
-20
-27
-30
-23
3
51
122
206
290
355
388
379
331
252
156
61
-24
-92
-140
-170
-183
-184
-175
-161
-146
-131
-117
-104
-93
-81
-70
-58
-48
-38
-30
-23
-17
-12
-9
-5
-1
3
6
10
13
17
20
24
29
34
40
48
55
63
70
77
81
84
86
87
89
90
90
88
83
74
62
46
26
3
-21
-45
-68
-87
-102
-114
-123
-128
-129
-126
-120
-112
-102
-93
-84
-76
-69
-62
-55
-48
-41
-35
-30
-25
-21
-18
-16
-14
-13
-11
-8
-5
-3
-2
-1
-1
-1
0
1
2
2
3
3
2
2
1
0
-1
-2
-1
0
2
4
5
5
4
2
-1
-4
-6
-7
-7
-7
-6
-5
-3
-2
-1
1
3
5
7
9
11
12
13
13
12
11
10
10
12
14
16
17
16
13
9
4
-2
-7
-10
-12
-12
-13
-14
-16
-18
-20
-21
-22
-23
-25
-29
-33
-33
-22
7
58
134
224
315
387
424
415
361
273
167
61
-33
-107
-159
-190
-205
-207
-200
-187
-172
-154
-137
-120
-105
-91
-79
-68
-58
-50
-42
-35
-28
-21
-14
-7
-1
4
7
9
11
13
16
20
26
32
38
45
50
55
60
65
69
72
75
77
78
78
77
72
65
54
39
21
-1
-24
-50
-75
-99
-119
-135
-146
-154
-156
-155
-151
-143
-134
-124
-114
-105
-96
-88
-80
-73
-67
-64
-61
-58
-56
-53
-49
-46
-43
-40
-38
-35
-34
-35
-36
-37
-39
-39
-38
-37
-35
-32
-29
-27
-25
-25
-26
-27
-27
-27
-27
-27
-27
-28
-29
-29
-28
-28
-28
-28
-29
-30
-31
-32
-32
-33
-35
-36
-37
-37
-36
-34
-32
-29
-27
-26
-26
-26
-26
-26
-26
-27
-27
-29
-31
-32
-33
-31
-27
-23
-18
-14
-10
-7
-6
-7
-12
-19
-28
-37
-45
-52
-56
-58
-59
-58
-57
-55
-54
-54
-53
-53
-55
-58
-61
-57
-40
-3
58
140
231
313
367
380
347
274
176
71
-26
-105
-162
-200
-220
-226
-223
-212
-198
-181
-164
-147
-131
-115
-101
-89
-78
-70
-63
-56
-50
-45
-40
-36
-31
-27
-23
-19
-14
-10
-5
-1
4
10
17
24
32
38
44
49
52
55
58
60
61
63
64
64
62
55
45
29
9
-15
-41
-67
-91
-113
-132
-146
-156
-162
-163
-161
-157
-150
-142
-132
-122
-112
-103
-96
-90
-85
-81
-76
-71
-66
-61
-57
-54
-51
-48
-45
-40
-36
-32
-28
-26
-24
-24
-23
-22
-21
-19
-18
-18
-19
-21
-22
-24
-25
-25
-24
-23
-20
-18
-16
-14
-13
-12
-11
-12
-13
-14
-15
-15
-16
-17
-18
-20
-21
-21
-20
-18
-17
-16
-15
-14
-12
-10
-9
-7
-5
-3
-1
2
6
11
16
22
28
32
33
30
23
13
3
-7
-14
-19
-22
-25
-27
-29
-30
-29
-28
-25
-23
-22
-23
-26
-27
-22
-2
37
97
171
246
306
336
326
278
203
114
27
-47
-101
-135
-152
-157
-153
-143
-130
-115
-101
-88
-77
-66
-56
-46
-38
-32
-26
-22
-17
-12
-6
-1
4
8
12
15
18
21
24
29
34
39
45
50
54
58
62
67
72
79
86
93
98
102
104
105
102
96
86
71
51
27
1
-26
-53
-78
-99
-115
-126
-132
-134
-132
-127
-120
-112
-102
-93
-83
-75
-68
-63
-57
-52
-46
-41
-35
-30
-26
-23
-21
-18
-15
-11
-6
-2
2
4
5
6
7
8
8
9
9
9
9
9
9
9
10
10
10
10
9
8
6
5
3
2
1
-1
-1
-1
-1
1
3
5
7
8
8
7
5
3
1
0
0
1
2
4
5
7
9
12
15
19
24
29
34
38
40
41
38
32
25
17
9
2
-3
-8
-11
-13
-13
-12
-10
-8
-5
-4
-5
-7
-10
-9
3
31
79
148
228
305
362
384
364
305
220
124
32
-44
-100
-135
-153
-157
-153
-144
-131
-118
-104
-90
-76
-64
-52
-41
-32
-22
-13
-4
3
9
14
18
21
23
24
26
27
30
34
39
45
51
56
61
67
73
80
87
93
99
104
107
111
114
116
115
111
103
91
75
55
32
6
-22
-50
-75
-96
-113
-124
-129
-130
-125
-117
-107
-95
-84
-74
-65
-56
-48
-41
-36
-31
-27
-23
-19
-16
-13
-10
-7
-3
1
4
7
9
10
10
10
10
12
14
17
21
23
24
23
20
16
12
9
7
6
7
9
11
12
12
13
13
14
15
16
16
15
14
13
13
12
12
11
12
13
15
17
20
21
23
25
28
31
35
39
43
46
47
47
43
37
28
19
11
5
-1
-4
-5
-6
-6
-5
-5
-5
-5
-5
-6
-8
-9
-3
16
55
116
196
280
352
394
394
352
274
178
79
-8
-75
-121
-146
-156
-155
-147
-134
-119
-102
-86
-71
-57
-46
-36
-28
-21
-15
-9
-3
2
8
13
19
24
30
35
41
46
50
53
55
57
59
62
66
71
77
83
89
96
104
110
116
121
123
123
119
112
100
85
67
46
21
-5
-32
-57
-78
-95
-107
-113
-115
-113
-109
-103
-95
-87
-78
-69
-59
-49
-39
-31
-24
-18
-13
-10
-7
-5
-5
-5
-5
-5
-3
1
5
10
14
18
21
21
21
20
20
19
19
18
18
19
20
22
25
26
26
24
21
18
16
15
15
15
16
18
19
21
22
22
22
21
21
21
23
25
27
30
32
33
35
38
40
42
42
38
32
23
14
7
1
-3
-3
-2
0
3
5
6
7
7
5
1
-6
-10
-9
7
43
102
180
265
338
383
387
348
273
178
81
-6
-74
-121
-148
-159
-158
-148
-133
-116
-98
-83
-69
-59
-50
-43
-37
-31
-25
-18
-11
-4
3
9
16
23
29
34
37
39
40
41
42
44
47
51
55
60
66
73
81
90
98
107
113
117
118
115
110
100
87
71
51
27
2
-24
-49
-72
-92
-108
-119
-125
-126
-123
-118
-110
-102
-93
-84
-75
-66
-56
-47
-37
-29
-23
-20
-18
-17
-14
-12
-9
-8
-7
-7
-7
-7
-5
-4
-2
-1
1
4
6
7
8
9
9
10
10
11
13
14
16
16
14
12
10
8
8
8
7
7
5
4
3
2
3
3
4
6
7
9
10
12
13
13
14
15
17
20
23
27
31
34
37
39
38
35
29
21
12
5
-1
-5
-8
-9
-9
-8
-7
-4
-2
1
2
0
-4
-8
-8
4
35
90
166
254
334
391
408
381
315
222
121
25
-54
-112
-151
-172
-180
-178
-168
-153
-135
-117
-100
-84
-70
-58
-47
-38
-30
-23
-18
-12
-8
-4
1
6
10
14
18
22
25
28
33
38
44
51
59
68
77
86
93
99
102
105
106
106
104
100
94
86
76
64
50
33
12
-11
-35
-59
-81
-100
-113
-122
-125
-125
-121
-114
-105
-94
-83
-72
-63
-56
-52
-49
-46
-43
-38
-34
-30
-25
-22
-19
-16
-12
-9
-6
-3
-1
1
3
5
6
8
9
10
9
7
5
3
2
2
3
5
6
7
7
7
7
7
7
7
7
7
7
7
6
6
5
4
3
2
2
2
2
3
4
5
7
9
10
11
11
11
11
12
13
15
18
21
23
24
22
19
13
7
2
-3
-7
-10
-12
-14
-14
-15
-15
-16
-17
-19
-23
-28
-34
-36
-30
-7
36
102
186
274
350
395
399
359
283
186
84
-7
-81
-132
-165
-181
-184
-178
-167
-152
-136
-119
-104
-89
-76
-63
-51
-40
-31
-22
-16
-10
-5
1
5
10
14
18
21
23
25
28
31
36
42
49
57
64
70
76
81
86
91
95
98
100
99
97
92
84
72
57
39
16
-9
-34
-58
-81
-99
-114
-124
-130
-132
-131
-127
-121
-113
-104
-95
-85
-77
-69
-62
-55
-48
-41
-36
-32
-29
-27
-25
-24
-23
-22
-21
-19
-16
-13
-9
-6
-3
-1
-1
-2
-5
-7
-10
-12
-13
-14
-13
-11
-8
-5
-2
-1
-2
-3
-6
-8
-10
-11
-11
-12
-12
-12
-12
-12
-11
-9
-7
-6
-5
-6
-6
-6
-4
-1
3
8
12
16
18
17
14
8
1
-6
-13
-20
-25
-29
-31
-32
-32
-32
-32
-32
-34
-35
-36
-37
-40
-42
-41
-31
-5
42
109
189
266
325
349
332
276
194
100
10
-65
-120
-156
-176
-183
-181
-172
-159
-143
-127
-112
-98
-85
-74
-64
-55
-47
-41
-36
-32
-28
-25
-22
-20
-18
-16
-12
-9
-4
1
5
10
14
19
25
33
42
51
60
67
72
76
79
81
82
82
80
75
66
51
32
8
-19
-46
-72
-97
-117
-134
-147
-156
-160
-161
-158
-153
-145
-136
-125
-114
-104
-95
-87
-80
-75
-70
-65
-62
-58
-54
-50
-46
-40
-36
-32
-28
-26
-24
-23
-21
-20
-17
-15
-13
-12
-12
-12
-12
-12
-11
-11
-11
-12
-14
-16
-17
-17
-16
-14
-14
-14
-16
-18
-21
-22
-22
-22
-20
-19
-18
-18
-19
-19
-19
-18
-16
-14
-12
-9
-7
-5
-5
-6
-7
-7
-6
-3
2
7
11
14
16
17
15
11
5
-2
-9
-16
-21
-24
-27
-28
-28
-29
-30
-30
-31
-31
-33
-35
-40
-45
-46
-37
-9
42
120
216
316
401
451
454
409
322
212
95
-13
-102
-169
-212
-235
-241
-233
-217
-197
-174
-152
-131
-112
-97
-83
-71
-61
-52
-43
-36
-28
-21
-16
-12
-9
-8
-7
-5
-2
3
9
16
24
33
42
51
58
65
72
78
84
90
96
100
104
106
106
103
96
84
68
47
21
-8
-37
-65
-90
-111
-128
-140
-148
-151
-151
-146
-139
-130
-120
-110
-100
-91
-83
-75
-67
-60
-53
-47
-40
-34
-28
-24
-20
-17
-16
-14
-13
-12
-11
-10
-9
-8
-7
-6
-6
-7
-8
-9
-10
-10
-10
-10
-10
-9
-9
-7
-5
-3
0
1
1
-2
-6
-10
-14
-16
-16
-15
-13
-12
-11
-11
-11
-11
-12
-12
-11
-10
-7
-5
-3
-1
0
0
0
-1
-3
-4
-3
-1
3
6
10
12
13
11
7
1
-6
-14
-21
-28
-33
-38
-42
-44
-46
-45
-45
-45
-46
-49
-55
-62
-70
-72
-61
-30
27
112
215
319
403
448
441
382
283
164
44
-63
-147
-208
-246
-265
-268
-260
-244
-224
-203
-183
-164
-146
-130
-116
-103
-92
-83
-75
-68
-62
-56
-52
-49
-48
-47
-46
-45
-43
-40
-35
-27
-18
-7
4
15
24
31
36
40
43
46
48
51
52
51
48
42
33
20
4
-18
-42
-70
-98
-124
-148
-167
-181
-191
-195
-196
-194
-191
-187
-183
-178
-172
-165
-156
-146
-136
-126
-117
-109
-103
-97
-92
-87
-83
-79
-75
-71
-68
-67
-66
-67
-67
-66
-65
-65
-65
-65
-66
-66
-66
-65
-65
-65
-64
-64
-62
-61
-59
-58
-57
-56
-54
-53
-52
-51
-51
-52
-53
-54
-56
-58
-61
-62
-62
-62
-61
-60
-57
-55
-52
-50
-49
-48
-49
-51
-53
-54
-55
-55
-54
-52
-50
-48
-47
-47
-46
-45
-44
-41
-37
-33
-28
-24
-21
-20
-22
-27
-34
-42
-51
-59
-65
-68
-69
-69
-68
-68
-67
-66
-66
-67
-69
-73
-78
-80
-72
-48
0
71
162
257
336
382
382
333
245
136
24
-76
-153
-208
-240
-254
-254
-244
-230
-213
-196
-179
-162
-145
-129
-114
-101
-91
-83
-76
-70
-65
-61
-57
-54
-50
-46
-41
-36
-31
-26
-21
-16
-10
-4
2
8
15
22
28
34
39
44
49
52
56
58
57
54
47
36
20
-1
-24
-49
-76
-101
-125
-146
-161
-173
-179
-181
-179
-173
-166
-156
-145
-135
-125
-115
-106
-98
-92
-87
-83
-79
-75
-71
-66
-62
-57


-54
-51
-48
-45
-43
-42
-41
-41
-41
-42
-43
-44
-45
-45
-43
-41
-37
-34
-32
-31
-32
-34
-36
-38
-41
-43
-45
-46
-47
-47
-46
-46
-45
-43
-42
-42
-41
-41
-41
-40
-40
-39
-38
-36
-33
-29
-24
-19
-15
-11
-10
-9
-10
-10
-9
-7
-4
-1
1
2
1
-2
-6
-11
-16
-21
-24
-28
-31
-33
-35
-36
-36
-34
-31
-27
-24
-24
-26
-28
-26
-12
20
73
146
228
303
354
366
335
268
177
80
-7
-76
-123
-149
-159
-157
-148
-134
-119
-104
-91
-80
-71
-62
-53
-45
-36
-28
-20
-14
-7
-1
6
14
22
32
41
50
59
66
73
79
84
87
90
91
91
92
95
103
114
130
148
165
182
195
204
210
211
205
193
172
145
111
73
32
-9
-50
-90
-128
-164
-198
-229
-255
-274
-286
-290
-286
-273
-256
-234
-212
-189
-168
-147
-128
-111
-97
-85
-76
-66
-57
-48
-38
-28
-19
-9
0
9
18
26
33
40
48
55
62
65
66
63
59
55
50
44
38
31
27
28
34
45
57
67
73
73
68
59
49
39
31
26
22
19
16
14
15
21
33
48
63
74
78
77
71
62
54
46
40
38
37
39
42
47
53
58
62
62
56
44
27
8
-12
-28
-41
-49
-51
-49
-44
-38
-33
-30
-30
-33
-35
-35
-23
5
57
135
230
329
410
455
453
404
321
221
120
30
-41
-92
-124
-139
-143
-141
-134
-124
-111
-96
-79
-59
-38
-19
-2
9
14
15
14
14
19
28
40
53
66
77
87
94
98
100
99
99
100
103
108
113
117
121
123
126
130
136
142
149
155
159
160
158
151
139
122
101
76
49
20
-8
-34
-56
-72
-82
-87
-88
-85
-78
-67
-54
-40
-27
-17
-11
-6
-3
1
5
7
8
9
9
12
16
23
30
36
42
48
54
60
66
72
76
78
77
73
68
62
55
49
42
35
28
22
17
15
17
25
39
56
72
82
85
83
78
72
68
64
60
56
51
47
47
52
59
68
77
85
91
94
92
87
79
71
65
64
68
77
89
101
109
112
108
100
92
86
83
80
75
69
63
61
64
69
73
73
68
58
47
36
28
21
18
21
38
78
145
235
340
441
517
547
524
449
337
210
88
-14
-89
-137
-165
-178
-182
-180
-174
-165
-150
-131
-109
-86
-66
-49
-36
-24
-14
-4
6
17
30
44
60
75
90
101
111
117
124
130
136
142
146
149
152
155
160
167
174
180
181
181
178
174
170
166
160
153
145
134
120
101
76
47
15
-18
-50
-78
-102
-121
-134
-141
-142
-140
-136
-132
-129
-127
-124
-119
-112
-103
-95
-86
-78
-69
-61
-52
-43
-33
-21
-8
6
19
32
44
55
66
77
86
92
93
92
88
85
83
82
83
84
84
81
72
58
43
27
15
7
4
3
5
10
18
28
38
47
55
61
65
69
73
77
82
84
81
70
52
30
7
-11
-22
-27
-26
-25
-24
-23
-23
-20
-14
-5
7
19
31
38
41
38
29
18
9
4
3
4
7
13
26
53
99
163
239
315
376
409
405
363
289
196
99
11
-59
-109
-141
-158
-163
-158
-144
-123
-97
-70
-45
-24
-8
1
6
8
11
16
24
34
45
54
61
65
66
66
63
60
57
58
64
74
88
100
109
113
113
113
113
115
118
122
125
128
130
130
129
125
119
109
92
68
37
2
-32
-62
-84
-98
-107
-112
-114
-114
-111
-106
-99
-91
-82
-72
-63
-53
-44
-36
-28
-21
-17
-12
-10
-7
-5
-3
-1
1
2
3
5
8
11
14
16
17
16
12
9
8
9
15
24
34
43
48
48
45
38
30
22
16
12
11
11
13
16
19
21
22
23
23
23
24
26
31
38
48
59
67
71
67
57
43
30
21
18
20
28
37
47
55
61
63
60
54
45
35
24
14
5
-1
-5
-6
-6
-6
-6
-7
-8
-10
-13
-19
-27
-33
-29
-4
50
135
240
348
435
481
476
421
326
211
94
-10
-95
-155
-193
-210
-211
-201
-184
-164
-144
-126
-110
-95
-82
-70
-61
-52
-43
-32
-20
-6
6
16
22
24
22
20
19
20
24
30
39
50
61
71
82
92
102
111
117
120
119
116
114
112
111
109
107
103
95
83
65
42
14
-16
-46
-73
-98
-120
-136
-146
-152
-153
-151
-144
-135
-124
-111
-98
-84
-70
-59
-48
-39
-31
-24
-17
-12
-8
-5
-4
-3
-2
-2
-3
-5
-8
-11
-13
-13
-10
-6
-2
3
5
7
6
5
4
3
3
3
3
3
1
-1
-3
-4
-5
-5
-4
-2
1
4
7
9
10
11
12
13
15
18
21
26
31
36
41
43
43
38
29
17
4
-8
-18
-24
-25
-23
-20
-15
-12
-10
-9
-10
-12
-14
-16
-10
9
51
119
214
324
429
505
531
499
413
291
155
27
-79
-156
-206
-231
-238
-230
-214
-193
-170
-148
-128
-109
-94
-81
-71
-61
-50
-39
-27
-15
-3
7
16
23
29
33
37
39
39
37
35
33
33
37
42
49
57
66
76
86
97
106
113
117
120
119
116
108
96
79
57
32
3
-28
-60
-91
-117
-140
-157
-170
-179
-183
-182
-178
-169
-158
-145
-131
-119
-108
-98
-89
-80
-71
-63
-56
-52
-49
-48
-47
-45
-42
-39
-37
-35
-35
-35
-36
-36
-37
-38
-38
-37
-35
-34
-34
-35
-36
-36
-35
-32
-29
-26
-24
-23
-22
-22
-23
-23
-22
-21
-17
-13
-9
-5
-3
-2
-2
-6
-11
-20
-30
-41
-52
-62
-70
-76
-80
-81
-80
-78
-77
-76
-77
-80
-86
-95
-105
-111
-107
-82
-28
56
165
281
379
438
440
384
281
152
21
-95
-183
-241
-274
-285
-280
-264
-242
-218
-195
-175
-157
-142
-129
-117
-107
-100
-96
-95
-94
-93
-92
-87
-81
-71
-58
-45
-33
-22
-13
-7
-3
-1
2
6
11
18
25
32
37
41
46
50
54
58
61
60
56
48
32
8
-26
-67
-110
-153
-189
-218
-238
-248
-251
-247
-238
-226
-212
-200
-190
-184
-179
-176
-172
-168
-161
-154
-144
-131
-117
-102
-91
-85
-84
-87
-91
-91
-87
-82
-77
-75
-76
-79
-82
-85
-87
-90
-93
-94
-93
-89
-82
-77
-72
-70
-69
-68
-65
-61
-56
-51
-48
-46
-44
-42
-38
-35
-33
-35
-41
-49
-59
-68
-76
-80
-81
-80
-79
-77
-75
-74
-73
-73
-75
-79
-86
-95
-101
-99
-81
-39
27
116
213
301
358
370
333
253
149
39
-61
-140
-194
-227
-242
-244
-238
-227
-212
-194
-173
-152
-131
-113
-99
-89
-83
-80
-78
-76
-72
-66
-56
-46
-36
-28
-22
-19
-17
-15
-15
-15
-15
-14
-12
-6
4
16
29
41
51
56
58
57
57
56
54
50
41
27
8
-14
-40
-66
-91
-112
-131
-145
-156
-163
-168
-169
-169
-166
-162
-157
-151
-143
-135
-125
-115
-104
-92
-81
-70
-61
-54
-51
-49
-48
-46
-42
-36
-31
-26
-24
-24
-26
-29
-31
-32
-32
-30
-29
-27
-26
-25
-23
-21
-19
-17
-15
-14
-14
-14
-14
-12
-9
-5
-1
4
8
11
12
12
8
3
-5
-14
-22
-30
-36
-41
-44
-46
-47
-47
-46
-44
-43
-43
-46
-49
-52
-48
-31
7
70
154
249
338
404
428
404
336
236
123
15
-77
-147
-195
-224
-238
-239
-230
-214
-194
-172
-151
-130
-110
-92
-76
-63
-53
-46
-40
-37
-34
-31
-27
-24
-20
-14
-8
-2
5
12
20
28
37
45
52
56
60
63
66
71
76
81
86
89
89
85
79
70
58
43
25
4
-20
-46
-72
-97
-119
-136
-148
-155
-157
-154
-148
-139
-128
-117
-107
-98
-90
-82
-74
-63
-51
-37
-24
-14
-7
-5
-6
-8
-10
-11
-10
-9
-6
-4
-3
-2
-2
-4
-6
-8
-11
-14
-16
-16
-14
-12
-9
-5
-1
3
7
10
13
18
24
32
39
45
47
44
37
27
17
7
-1
-7
-11
-14
-14
-13
-10
-8
-6
-7
-9
-14
-20
-26
-29
-22
1
48
121
214
314
400
449
449
397
304
188
71
-30
-105
-151
-172
-175
-168
-156
-146
-139
-134
-129
-121
-110
-96
-83
-73
-68
-62
-53
-38
-18
4
25
43
55
64
68
69
69
69
71
76
82
88
93
97
99
99
96
93
90
90
93
98
105
110
112
111
107
97
82
61
36
7
-23
-51
-76
-96
-111
-121
-126
-128
-126
-122
-116
-108
-99
-90
-80
-70
-60
-51
-45
-41
-40
-41
-41
-40
-35
-27
-17
-7
2
7
10
11
11
13
16
18
19
17
12
5
-2
-8
-11
-10
-6
-1
5
10
16
21
26
31
34
36
36
37
39
42
46
51
53
51
46
39
30
21
14
9
5
1
-2
-5
-7
-9
-10
-11
-14
-18
-23
-27
-24
-7
30
93
180
282
380
453
482
459
387
280
159
43
-56
-134
-188
-221
-237
-239
-230
-214
-195
-173
-150
-127
-106
-86
-70
-57
-47
-40
-35
-31
-26
-21
-16
-12
-7
-2
3
9
16
21
27
32
36
41
47
52
57
62
66
70
74
77
80
81
80
75
67
56
43
26
6
-18
-45
-72
-97
-119
-136
-146
-152
-153
-150
-145
-138
-131
-122
-113
-104
-96
-89
-84
-80
-77
-72
-67
-61
-54
-48
-42
-38
-33
-29
-24
-20
-16
-10
-5
1
6
8
8
4
-1
-6
-10
-11
-10
-8
-6
-4
-2
-2
-3
-5
-6
-6
-5
-2
2
6
8
10
10
10
9
8
6
5
7
11
17
23
28
32
34
34
30
24
14
4
-6
-15
-21
-25
-28
-28
-28
-27
-26
-26
-26
-27
-29
-30
-27
-16
10
59
131
220
312
385
421
410
350
257
147
40
-50
-119
-165
-192
-205
-206
-200
-188
-172
-155
-138
-121
-106
-92
-81
-71
-63
-55
-47
-40
-33
-26
-19
-13
-7
-1
6
13
21
28
34
39
43
48
53
58
64
70
75
81
86
93
99
104
107
107
104
97
86
72
53
31
7
-19
-45
-68
-89
-106
-118
-126
-130
-128
-123
-114
-104
-93
-83
-73
-64
-55
-45
-36
-27
-20
-13
-9
-6
-4
-3
-2
-1
0
1
2
3
4
8
12
18
22
25
26
25
24
22
21
20
20
20
20
20
20
20
21
21
22
24
25
25
24
23
22
22
22
24
25
26
28
29
31
32
35
38
42
46
50
52
51
47
41
34
26
18
11
4
-2
-6
-9
-11
-12
-11
-9
-6
-4
-4
-5
-5
4
27
72
139
224
311
384
424
420
372
288
186
83
-7
-77
-123
-149
-159
-157
-148
-135
-121
-108
-95
-83
-70
-56
-43
-30
-19
-8
1
9
15
20
24
28
32
35
39
42
46
50
56
62
69
75
81
85
90
94
99
104
109
113
117
119
120
118
114
106
95
81
65
46
25
2
-22
-45
-66
-83
-96
-104
-107
-107
-102
-96
-87
-77
-65
-55
-45
-37
-32
-27
-22
-16
-10
-4
3
8
13
18
23
26
28
29
29
29
30
32
35
37
39
40
42
45
46
47
47
45
43
40
38
37
37
38
38
39
39
40
40
41
41
40
39
38
38
39
40
41
43
43
45
46
47
49
50
52
53
55
58
61
63
65
67
68
69
68
64
57
48
39
32
28
27
28
30
32
34
36
37
38
38
36
32
26
25
36
65
119
197
288
376
440
464
440
375
280
175
74
-10
-74
-118
-143
-154
-153
-143
-128
-111
-92
-73
-55
-38
-23
-10
0
7
12
17
21
25
30
34
38
43
47
50
54
58
62
67
72
79
87
95
102
110
116
121
126
129
131
132
132
131
128
124
116
107
94
78
58
35
10
-16
-39
-59
-75
-85
-91
-93
-92
-86
-79
-70
-60
-51
-41
-32
-22
-13
-5
1
6
9
12
14
17
19
21
23
24
25
25
26
27
30
34
38
41
45
49
52
54
54
53
51
48
45
42
40
38
38
39
41
43
46
47
48
46
44
41
38
37
38
40
45
50
55
61
65
69
72
74
74
72
67
59
49
39
30
23
18
15
14
16
19
24
28
31
32
30
24
15
8
10
28
70
140
232
333
426
487
503
468
389
282
167
58
-32
-99
-145
-171
-181
-178
-166
-149
-130
-110
-91
-72
-54
-38
-24
-12
-2
6
13
18
22
25
28
32
36
42
49
57
66
73
79
83
86
88
90
93
97
101
106
111
117
123
128
133
136
136
132
123
109
89
64
36
6
-22
-47
-69
-86
-98
-106
-108
-106
-101
-94
-85
-75
-66
-56
-48
-41
-34
-27
-21
-15
-10
-6
-4
-3
-1
1
4
7
10
13
15
17
19
22
25
27
28
28
26
23
21
19
18
17
17
17
17
17
17
18
20
22
24
26
26
26
25
23
21
17
13
9
5
3
3
3
4
4
4
3
1
1
0
0
0
0
1
3
5
7
10
12
16
20
24
26
25
20
12
3
-7
-16
-23
-28
-32
-35
-35
-36
-35
-35
-36
-39
-43
-49
-54
-54
-42
-12
41
119
214
311
390
433
427
372
281
169
57
-43
-122
-180
-216
-236
-241
-234
-221
-204
-185
-165
-145
-127
-112
-99
-90
-83
-77
-71
-65
-59
-54
-49
-44
-39
-34
-29
-24
-20
-15
-10
-5
-1
4
7
11
16
21
27
33
39
44
48
50
50
48
45
39
30
18
2
-19
-42
-68
-95
-121
-144
-163
-177
-186
-192


-195
-194
-189
-183
-175
-165
-156
-147
-138
-130
-121
-112
-104
-97
-90
-85
-81
-77
-75
-73
-71
-69
-66
-63
-60
-57
-56
-55
-54
-52
-51
-49
-46
-45
-44
-44
-47
-50
-54
-56
-57
-57
-56
-55
-53
-52
-50
-48
-46
-45
-43
-42
-41
-42
-43
-44
-46
-47
-48
-49
-49
-48
-47
-46
-45
-45
-44
-44
-43
-42
-42
-41
-41
-41
-41
-41
-41
-40
-39
-39
-39
-40
-41
-41
-40
-40
-39
-38
-37
-35
-33
-32
-30
-28
-25
-21
-17
-12
-8
-4
-2
-3
-6
-12
-19
-28
-36
-43
-49
-53
-54
-54
-53
-51
-50
-49
-50
-53
-56
-59
-59
-51
-28
16
83
170
264
347
399
407
367
287
183
74
-24
-103
-160
-197
-216
-220
-214
-200
-183
-164
-146
-129
-114
-99
-86
-75
-66
-59
-53
-48
-42
-37
-31
-25
-20
-14
-9
-4
2
8
13
17
22
26
32
38
45
53
61
70
78
84
88
91
91
91
89
85
79
69
55
37
16
-9
-36
-62
-85
-106
-123
-136
-144
-150
-152
-150
-145
-138
-127
-116
-105
-95
-85
-77
-68
-58
-49
-41
-35
-32
-30
-30
-29
-27
-25
-24
-22
-21
-19
-16
-13
-11
-9
-9
-9
-9
-10
-10
-10
-11
-11
-11
-11
-10
-8
-5
-2
1
2
3
2
1
-1
-2
-3
-4
-6
-8
-12
-16
-19
-22
-23
-25
-26
-26
-25
-23
-20
-17
-14
-13
-14
-15
-17
-18
-18
-17
-16
-14
-13
-10
-7
-3
2
8
13
18
23
28
33
36
37
36
31
24
15
5
-4
-12
-18
-20
-21
-20
-19
-19
-19
-21
-23
-26
-30
-35
-37
-34
-17
21
83
167
263
354
417
436
404
331
231
122
20
-65
-127
-166
-185
-189
-182
-171
-156
-138
-116
-93
-73
-60
-52
-48
-45
-40
-32
-22
-12
-2
6
12
16
18
18
16
11
9
13
23
37
50
62
72
81
89
97
104
110
115
119
123
126
127
124
119
111
100
83
62
36
7
-21
-47
-71
-91
-105
-115
-123
-129
-132
-133
-131
-127
-120
-111
-101
-90
-79
-68
-58
-47
-37
-27
-20
-13
-9
-7
-5
-4
-4
-4
-2
0
4
7
11
15
19
22
25
28
28
28
26
24
22
20
18
17
15
13
12
11
11
12
13
16
18
21
23
26
27
28
27
26
24
22
21
20
20
21
21
21
22
22
22
22
24
27
32
36
40
43
44
41
37
32
27
23
22
21
22
23
24
26
30
34
40
46
51
55
57
58
58
57
55
50
42
32
22
13
6
1
-2
-3
-2
-1
1
2
1
-3
-7
-10
-7
8
41
97
175
264
349
411
433
408
340
244
137
36
-47
-107
-144
-163
-166
-160
-147
-131
-114
-95
-76
-57
-40
-24
-11
0
7
12
16
18
21
24
27
32
37
42
47
52
57
62
67
71
75
80
85
91
96
102
108
113
119
124
129
133
135
136
133
127
117
103
85
64
40
13
-14
-41
-66
-86
-102
-113
-119
-121
-118
-113
-105
-97
-87
-78
-69
-61
-54
-48
-41
-35
-27
-19
-11
-4
3
7
10
11
11
11
12
13
17
22
27
31
33
33
31
29
26
24
23
22
23
25
28
30
31
31
30
30
29
30
31
32
32
32
30
28
26
26
25
25
25
24
23
23
23
25
26
27
28
28
27
27
27
28
30
32
34
36
38
40
41
42
44
47
50
53
56
59
60
57
51
43
33
23
15
8
4
3
3
5
7
10
11
12
11
8
3
1
4
19
53
111
189
279
364
424
445
419
351
256
149
48
-37
-100
-143
-166
-174
-169
-156
-138
-119
-100
-84
-69
-57
-46
-36
-26
-17
-9
-3
3
8
12
18
23
29
34
38
43
47
51
55
60
66
72
79
86
94
100
107
111
115
119
122
125
126
125
122
114
104
89
70
48
23
-3
-28
-53
-74
-93
-107
-115
-120
-121
-120
-117
-112
-105
-95
-85
-74
-65
-56
-49
-42
-36
-30
-24
-19
-14
-10
-7
-5
-3
-3
-2
-1
0
2
5
8
10
11
12
10
8
7
5
5
6
8
11
14
17
19
20
20
20
20
21
22
22
23
23
22
21
19
17
16
14
14
14
15
16
17
17
16
15
14
12
12
13
16
19
22
25
26
27
29
31
33
35
38
41
44
47
48
47
44
38
30
21
12
4
-2
-5
-6
-6
-4
-2
-2
-3
-7
-13
-22
-29
-33
-26
-2
48
124
221
323
410
462
466
420
333
222
107
3
-79
-137
-172
-189
-192
-186
-175
-160
-144
-126
-107
-87
-69
-53
-40
-31
-26
-22
-18
-12
-6
3
11
21
29
36
41
46
51
56
61
65
68
71
75
78
83
90
96
103
108
112
115
117
119
119
117
112
101
84
61
34
4
-26
-53
-78
-99
-115
-127
-135
-140
-141
-140
-135
-128
-119
-109
-99
-89
-78
-68
-58
-50
-44
-40
-36
-33
-30
-25
-21
-15
-9
-4
1
5
8
10
12
13
13
13
13
13
13
13
13
14
15
15
14
13
10
8
7
7
9
11
14
16
18
19
19
18
17
15
13
11
10
9
8
9
9
10
12
14
16
17
17
16
15
13
12
11
10
9
10
13
17
23
30
36
41
43
43
41
35
27
18
8
-1
-9
-15
-20
-23
-25
-25
-24
-22
-20
-19
-20
-23
-27
-30
-25
-6
36
105
196
296
386
445
456
418
337
231
117
13
-72
-135
-176
-197
-203
-197
-183
-166
-147
-129
-113
-98
-85
-73
-62
-52
-42
-34
-26
-20
-14
-8
-3
2
7
11
17
23
30
39
47
55
62
67
71
74
78
83
88
93
98
102
105
108
109
109
106
99
88
72
51
26
-1
-28
-54
-78
-99
-117
-132
-142
-148
-149
-147
-141
-134
-124
-115
-106
-97
-90
-83
-76
-68
-60
-50
-39
-28
-21
-18
-19
-25
-31
-35
-36
-34
-29
-22
-14
-6
1
7
12
15
18
21
24
24
20
12
-1
-15
-26
-32
-30
-22
-9
6
18
25
25
20
12
5
0
-3
-3
-3
-2
-1
1
4
8
11
13
12
11
11
15
21
27
32
35
35
33
29
24
21
19
20
25
31
37
39
36
30
22
17
15
16
17
15
9
-1
-12
-22
-30
-35
-36
-34
-31
-28
-26
-21
-7
21
71
143
229
311
371
395
376
317
229
128
29
-57
-124
-170
-197
-210
-213
-205
-189
-164
-137
-111
-88
-70
-57
-48
-43
-39
-35
-28
-20
-12
-6
-2
3
10
19
28
39
48
55
60
62
64
66
70
76
82
87
91
94
96
98
100
101
100
96
90
83
72
56
36
12
-15
-43
-70
-95
-117
-135
-148
-156
-160
-161
-158
-154
-145
-134
-122
-110
-99
-87
-76
-65
-56
-50
-47
-48
-53
-61
-69
-74
-74
-70
-64
-56
-48
-38
-28
-18
-10
-5
-4
-6
-10
-12
-13
-10
-4
3
8
13
14
12
3
-13
-31
-47
-57
-61
-58
-51
-41
-30
-18
-7
0
4
4
2
-1
-5
-10
-14
-17
-18
-19
-22
-26
-30
-32
-32
-29
-22
-12
1
13
22
26
25
21
13
1
-12
-25
-37
-48
-56
-62
-64
-62
-56
-48
-40
-34
-33
-33
-34
-30
-14
19
76
155
247
338
406
434
415
347
245
136
45
-18
-62
-98
-128
-148
-153
-148
-139
-132
-130
-130
-128
-125
-124
-126
-128
-125
-113
-97
-85
-77
-69
-58
-48
-43
-42
-40
-33
-22
-12
-6
-1
4
12
20
27
33
41
48
54
60
71
86
104
118
124
120
107
86
55
14
-33
-68
-81
-73
-63
-64
-80
-102
-119
-128
-134
-138
-140
-137
-122
-99
-74
-51
-32
-14
0
6
1
-11
-22
-30
-37
-46
-56
-64
-69
-72
-77
-82
-83
-76
-65
-59
-64
-70
-65
-50
-34
-29
-34
-43
-47
-43
-32
-19
-7
2
8
10
5
-7
-18
-20
-13
-4
2
3
4
8
12
9
-1
-14
-27
-39
-53
-68
-80
-87
-89
-88
-83
-74
-59
-41
-25
-14
-7
-5
-6
-10
-17
-26
-37
-51
-65
-80
-94
-102
-101
-94
-82
-70
-62
-58
-56
-57
-62
-68
-76
-83
-90
-91
-83
-57
-6
72
175
289
393
464
486
450
362
239
105
-19
-121
-194
-241
-264
-270
-265
-253
-237
-215
-189
-163
-139
-119
-103
-93
-86
-80
-73
-63
-50
-37
-26
-16
-7
2
10
19
29
39
51
62
72
79
84
87
90
92
93
93
93
93
91
89
87
87
90
92
90
82
65
38
1
-44
-90
-132
-162
-181
-190
-196
-201
-205
-203
-195
-182
-166
-150
-136
-124
-115
-106
-97
-87
-77
-65
-53
-42
-31
-24
-23
-27
-33
-37
-38
-37
-38
-41
-43
-40
-34
-25
-16
-8
3
15
29
42
51
58
63
65
59
45
26
7
-4
-6
-2
4
7
10
13
18
24
28
31
32
31
29
28
30
34
39
43
45
42
34
24
15
10
11
17
23
26
23
14
3
-6
-11
-9
1
18
38
56
70
76
71
59
40
18
-5
-26
-40
-45
-41
-33
-24
-19
-18
-18
-18
-15
-10
-6
-3
-3
-4
-3
6
32
80
149
232
317
384
418
406
346
249
137
28
-61
-128
-175
-206
-224
-227
-219
-203
-184
-165
-145
-124
-101
-77
-53
-34
-20
-16
-21
-34
-48
-54
-51
-40
-24
-6
14
32
48
59
65
66
64
62
61
63
68
79
94
107
117
122
122
120
115
108
101
94
89
85
78
67
48
20
-13
-47
-79
-107
-127
-139
-141
-137
-129
-122
-116
-111
-104
-95
-85
-75
-68
-62
-54
-43
-29
-13
0
6
6
-1
-10
-20
-26
-27
-23
-16
-7
-1
1
1
-1
-3
-7
-12
-16
-15
-10
-3
3
4
-2
-9
-16
-17
-13
-10
-9
-9
-9
-7
-4
-1
2
5
6
4
-2
-12
-22
-30
-32
-32
-30
-26
-19
-9
1
9
12
10
4
-4
-13
-21
-27
-28
-23
-11
4
19
31
39
42
40
34
25
13
0
-13
-26
-36
-40
-36
-26
-12
-2
4
3
-1
-6
-12
-17
-20
-14
6
49
117
204
295
368
402
388
328
236
133
38
-38
-91
-124
-140
-143
-138
-128
-116
-104
-93
-83
-73
-63
-53
-47
-44
-44
-45
-42
-34
-20
-2
19
38
56
70
80
86
87
84
77
69
62
55
50
47
48
52
61
72
83
94
105
117
127
135
137
130
116
94
66
33
-3
-41
-80
-116
-149
-174
-189
-193
-185
-170
-150
-130
-114
-105
-104
-109
-117
-124
-127
-124
-116
-105
-91
-74
-55
-38
-24
-17
-14
-16
-20
-24
-26
-27
-27
-28
-30
-33
-36
-37
-35
-31
-25
-18
-11
-6
-3
-2
-1
-1
0
1
1
-3
-9
-17
-24
-30
-31
-27
-18
-8
0
3
3
-1
-7
-12
-18
-23
-31
-40
-49
-57
-62
-62
-57
-46
-31
-14
0
7
7
-2
-15
-29
-41
-49
-51
-47
-38
-27
-16
-7
0
6
11
14
13
10
4
-2
-6
-7
-3
7
21
37
52
63
68
66
60
49
36
23
12
4
-1
-6
-10
-14
-16
-13
-4
9
25
39
49
54
53
46
36
26
24
34
66
122
204
302
400
477
512
496
431
332
217
107
12
-59
-106
-131
-139
-134
-120
-102
-83
-62
-43
-25
-9
5
19
32
43
52
60
66
72
77
81
83
84
84
85
87
91
96
100
103
103
102
102
104
111
123
138
154
169
180
183
178
165
148
130
115
101
86
67
40
8
-25
-57
-85
-109
-126
-139
-144
-145
-143
-139
-136
-136
-137
-138
-138
-136
-132
-127
-120
-111
-98
-84
-68
-54
-42
-35
-34
-36
-40
-46
-53
-58
-61
-62
-59
-53
-45
-35
-25
-20
-17
-17
-16
-9
1
11
18
18
14
9
2
-8
-21
-31
-36
-37
-39
-45
-52
-55
-52
-44
-35
-30
-30
-32
-32
-29
-25
-23
-21
-17
-10
-3
2
6
12
20
27
31
34
37
43
50
55
61
63
60
48
31
14
-2
-11
-12
-4
15
36
52
60
59
52
45
43
49
58
64
64
60
54
47
41
40
46
58
71
83
91
94
92
83
68
52
41
38
43
49
51
49
45
43
43
43
42
37
31
24
19
19
25
43
76
130
205
292
377
441
468
450
390
300
196
95
8
-57
-100
-121
-125
-117
-102
-84
-67
-52
-38
-25
-9
8
26
42
54
60
60
58
57
58
62
66
68
69
68
69
69
69
69
70
76
87
102
118
131
140
146
151
156
161
168
173
175
173
166
152
135
116
96
76
55
34
13
-8
-29
-51
-74
-95
-111
-117
-115
-105
-91
-76
-61
-49
-41
-37
-37
-39
-39
-32
-20
-4
11
23
32
39
46
53
59
63
63
61
57
52
48
44
40
33
25
17
11
9
12
18
24
27
28
28
31
37
47
60
71
76
72
60
41
21
6
-3
-3
4
16
30
47
65
83
98
108
113
114
112
108
101
92
79
66
55
51
53
61
73
90
112
133
142
130
102
68
41
25
18
14
10
5
0
-2
-3
-3
-2
3
10
14
14
11
10
15
23
29
28
21
12
1
-14
-36
-63
-86
-104
-113
-117
-120
-123
-127
-131
-131
-125
-116
-108
-103
-100
-92
-70
-28
36
116
203
280
333
349
323
258
169
70
-23
-100
-159
-200
-228
-243
-248
-246
-238
-227
-216
-207
-202
-201
-201
-200
-196
-191
-185
-178
-171
-163
-158
-156
-158
-162
-167
-170
-169
-161
-145
-123
-99
-76
-57
-43
-32
-24


-20
-19
-22
-28
-36
-40
-39
-31
-19
-9
-3
-5
-12
-26
-45
-70
-102
-136
-168
-195
-214
-227
-237
-247
-257
-265
-269
-267
-259
-247
-230
-212
-195
-182
-173
-170
-169
-170
-169
-166
-161
-155
-150
-144
-138
-130
-120
-109
-98
-90
-86
-85
-87
-89
-91
-91
-89
-85
-82
-79
-78
-79
-81
-82
-81
-80
-78
-77
-76
-78
-84
-95
-106
-114
-115
-109
-99
-89
-83
-80
-80
-78
-75
-72
-68
-63
-55
-44
-33
-25
-22
-24
-30
-38
-44
-46
-45
-42
-40
-40
-41
-43
-43
-40
-35
-31
-31
-35
-42
-50
-55
-56
-52
-43
-33
-24
-20
-21
-25
-30
-34
-35
-36
-37
-38
-38
-37
-34
-28
-21
-12
-5
1
1
-5
-15
-27
-39
-47
-52
-52
-50
-45
-40
-38
-40
-46
-55
-65
-72
-77
-79
-79
-76
-65
-40
7
81
177
284
379
441
452
406
312
191
67
-41
-122
-175
-206
-222
-227
-224
-212
-193
-171
-151
-135
-124
-115
-103
-87
-68
-52
-39
-32
-28
-27
-27
-29
-31
-30
-25
-17
-6
3
10
19
30
44
60
76
89
98
103
107
108
109
108
107
107
107
109
109
107
100
88
69
45
16
-16
-49
-84
-116
-146
-171
-190
-199
-197
-186
-168
-150
-135
-128
-127
-130
-131
-126
-112
-91
-69
-49
-34
-24
-20
-19
-22
-27
-34
-41
-47
-48
-43
-31
-13
5
21
30
32
27
19
9
-1
-10
-17
-22
-25
-30
-36
-43
-47
-46
-37
-24
-9
4
13
18
21
24
24
22
17
9
0
-6
-9
-8
-4
0
3
4
2
0
-3
-6
-9
-11
-12
-11
-7
0
8
14
17
17
16
16
18
23
26
25
20
12
5
0
-4
-6
-9
-10
-10
-7
1
12
24
33
38
39
38
36
35
34
32
28
24
21
18
16
13
9
4
-2
-10
-18
-26
-32
-34
-30
-20
-8
3
9
9
3
-3
-1
21
68
141
229
317
383
410
391
331
242
143
50
-28
-84
-121
-141
-148
-144
-133
-119
-105
-93
-85
-77
-68
-57
-45
-33
-23
-13
-4
3
9
12
16
21
31
41
49
52
51
49
47
46
46
48
54
63
75
86
95
97
96
98
109
127
142
145
138
126
114
102
87
65
33
-5
-42
-74
-102
-128
-151
-167
-175
-175
-173
-169
-163
-153
-141
-128
-117
-103
-85
-67
-52
-45
-45
-50
-57
-61
-60
-53
-40
-25
-11
-2
1
-3
-9
-15
-18
-16
-10
-3
5
11
17
21
25
28
28
21
10
-2
-9
-10
-5
4
13
17
13
5
-5
-11
-10
-3
7
17
24
28
30
30
30
28
26
24
20
15
9
3
-4
-12
-21
-28
-33
-30
-18
1
24
46
62
67
63
53
43
34
25
14
3
-6
-9
-2
10
23
32
36
34
29
24
21
19
15
9
-1
-13
-26
-36
-40
-38
-31
-24
-19
-19
-25
-38
-54
-65
-66
-52
-20
33
107
203
312
417
496
528
504
426
313
185
63
-38
-108
-148
-165
-166
-160
-152
-143
-133
-120
-103
-85
-65
-45
-23
0
24
47
66
77
80
77
69
61
54
51
52
58
67
79
93
109
128
147
159
162
155
143
133
129
133
141
150
159
167
173
175
170
156
132
98
56
9
-36
-73
-96
-105
-102
-92
-79
-67
-55
-42
-30
-18
-10
-7
-8
-10
-11
-8
-3
3
7
8
9
13
21
30
37
38
34
24
11
-3
-14
-24
-30
-32
-31
-26
-20
-13
-4
7
18
29
36
39
37
34
28
24
21
20
20
19
16
12
6
1
-2
-2
3
12
22
32
38
40
38
33
26
18
9
1
-4
-9
-12
-15
-16
-14
-11
-8
-4
-1
2
7
11
14
17
19
22
25
26
25
19
10
-2
-12
-21
-25
-24
-20
-12
-2
10
23
33
39
39
35
27
18
8
-1
-9
-18
-27
-35
-35
-24
-5
12
19
13
-1
-12
-8
17
69
146
244
346
431
476
467
407
309
193
74
-32
-117
-176
-211
-227
-230
-223
-206
-181
-154
-128
-105
-85
-66
-50
-41
-38
-39
-36
-29
-20
-13
-7
1
10
19
24
23
18
13
11
11
11
11
12
16
25
38
51
63
73
80
81
79
77
78
81
82
79
70
55
33
4
-30
-65
-97
-123
-142
-156
-169
-180
-187
-188
-183
-173
-160
-147
-135
-126
-121
-118
-112
-102
-90
-79
-74
-75
-78
-80
-78
-73
-65
-58
-51
-43
-35
-27
-23
-22
-22
-22
-23
-29
-39
-50
-57
-60
-61
-63
-65
-66
-67
-68
-66
-59
-46
-28
-11
0
1
-3
-4
2
13
23
30
33
35
37
37
33
27
24
25
25
23
17
11
6
1
-4
-6
-6
-3
0
-1
-4
-5
3
18
35
45
46
40
31
18
2
-14
-24
-25
-18
-10
-3
2
4
4
-2
-11
-22
-31
-36
-36
-34
-32
-29
-25
-19
-14
-11
-12
-15
-20
-27
-37
-51
-65
-75
-79
-78
-71
-61
-52
-49
-56
-73
-93
-110
-114
-97
-55
17
113
222
322
391
415
388
316
216
103
-6
-101
-173
-216
-230
-219
-194
-163
-137
-116
-103
-96
-94
-94
-92
-86
-78
-68
-59
-52
-46
-38
-28
-16
0
20
43
68
90
102
102
92
76
60
51
48
52
57
63
67
70
74
79
86
93
98
103
106
108
107
103
93
76
50
16
-21
-54
-87
-123
-168
-216
-248
-253
-230
-194
-159
-134
-117
-107
-102
-103
-109
-111
-107
-97
-85
-76
-68
-56
-40
-27
-24
-30
-37
-38
-32
-22
-12
-2
6
11
6
-6
-18
-18
-1
25
46
57
63
74
87
91
77
51
27
18
23
31
32
22
5
-9
-16
-20
-27
-36
-40
-30
-6
22
42
51
52
51
49
44
38
32
26
18
5
-14
-35
-50
-54
-45
-33
-31
-44
-59
-57
-34
1
30
47
54
60
71
89
97
79
28
-38
-94
-122
-122
-102
-76
-51
-32
-27
-38
-53
-54
-35
-17
-20
-37
-38
1
61
110
133
144
162
194
217
196
117
0
-110
-183
-226
-258
-281
-276
-235
-178
-136
-123
-117
-95
-56
-26
-23
-41
-62
-78
-96
-121
-144
-145
-109
-44
31
105
180
264
353
436
503
553
592
622
638
640
629
605
563
497
405
295
175
46
-90
-222
-330
-393
-406
-383
-349
-323
-308
-298
-289
-292
-320
-375
-443
-503
-542
-557
-546
-503
-429
-333
-229
-124
-17
93
204
313
414
507
590
660
711
735
733
704
654
592
522
437
324
177
9
-157
-291
-375
-410
-417
-421
-443
-490
-557
-631
-698
-742
-758
-743
-692
-601
-474
-325
-174
-38
75
169
252
328
396
448
480
494
492
472
436
389
337
282
224
163
105
56
24
11
13
18
17
3
-27
-72
-132
-203
-274
-335
-376
-389
-371
-325
-262
-197
-143
-105
-79
-59
-37
-9
27
63
78
58
33
76
233
460
638
679
580
405
224
76
-40
-140
-229
-288
-300
-272
-240
-227
-223
-199
-153
-114
-110
-129
-131
-94
-27
48
130
229
343
438
476
445
361
255
141
27
-78
-159
-208
-230
-235
-233
-226
-211
-191
-172
-154
-139
-121
-102
-87
-79
-77
-76
-69
-58
-50
-47
-48
-44
-33
-20
-11
-6
-1
7
15
19
19
24
36
54
72
88
104
120
132
134
126
115
107
102
98
91
83
75
64
49
27
1
-26
-55
-87
-120
-150
-172
-188
-198
-201
-197
-185
-170
-156
-146
-138
-129
-118
-107
-98
-89
-81
-74
-69
-65
-60
-52
-42
-30
-20
-9
2
13
22
26
24
16
4
-9
-19
-23
-23
-22
-22
-24
-24
-20
-13
-7
-4
-4
-7
-9
-9
-6
-1
4
8
8
3
-6
-17
-28
-36
-41
-41
-36
-27
-17
-8
0
7
11
14
14
12
8
2
-6
-13
-19
-21
-19
-13
-5
5
14
22
27
28
25
18
9
-2
-12
-21
-29
-35
-38
-40
-39
-38
-36
-34
-34
-35
-37
-39
-42
-46
-50
-50
-38
-5
54
136
229
314
370
382
346
269
166
59
-38
-113
-165
-196
-210
-212
-204
-192
-176
-158
-141
-125
-111
-99
-89
-81
-74
-65
-55
-43
-32
-21
-12
-5
1
4
8
11
16
20
25
30
36
42
49
56
63
68
71
74
78
84
91
97
100
101
99
95
87
74
54
30
4
-24
-50
-75
-98
-119
-137
-149
-157
-161
-165
-169
-175
-179
-180
-173
-160
-142
-123
-106
-94
-85
-77
-68
-58
-51
-51
-60
-77
-96
-109
-110
-96
-69
-37
-8
13
27
35
41
46
49
49
41
24
1
-25
-47
-61
-63
-54
-38
-24
-14
-13
-18
-26
-31
-31
-22
-8
7
16
18
11
1
-10
-18
-22
-22
-17
-11
-6
-5
-9
-15
-18
-17
-10
1
11
20
25
27
26
23
20
15
9
-1
-14
-30
-46
-59
-67
-68
-64
-58
-50
-44
-40
-39
-37
-33
-18
13
63
131
210
286
343
368
353
299
217
122
29
-50
-108
-144
-162
-166
-161
-151
-138
-122
-105
-87
-69
-51
-34
-18
-5
5
12
17
19
21
23
24
25
26
26
27
30
37
45
50
52
51
48
47
51
61
75
93
111
127
139
145
145
140
135
130
125
119
108
89
60
23
-18
-60
-100
-136
-166
-186
-196
-193
-181
-163
-144
-128
-115
-106
-98
-91
-84
-77
-70
-65
-61
-56
-50
-44
-38
-33
-29
-27
-26
-24
-21
-19
-17
-15
-10
-2
8
18
24
28
29
28
25
19
11
3
-4
-8
-7
-3
3
8
12
15
17
20
23
26
30
31
30
26
19
12
5
1
-1
1
5
10
14
17
18
17
17
20
26
36
45
52
57
58
57
52
44
33
19
4
-9
-19
-25
-30
-32
-32
-32
-30
-27
-25
-23
-24
-26
-30
-32
-26
-6
36
104
196
300
398
469
494
465
388
278
156
41
-55
-126
-174
-201
-212
-209
-195
-175
-152
-127
-104
-85
-71
-62
-54
-46
-37
-27
-17
-8
-1
7
15
25
36
45
51
54
53
50
48
47
49
56
67
79
92
104
114
122
127
131
134
136
136
135
132
125
114
98
78
54
28
2
-25
-51
-77
-100
-117
-127
-130
-128
-125
-121
-117
-111
-103
-91
-77
-64
-52
-41
-32
-23
-14
-8
-6
-6
-8
-11
-13
-13
-10
-6
-1
5
9
12
13
14
14
13
12
10
7
5
4
5
7
9
13
16
19
20
20
17
14
11
9
9
9
11
13
14
16
17
17
18
19
23
28
33
37
39
40
41
43
46
49
51
53
55
56
56
54
48
39
28
16
4
-5
-11
-15
-17
-18
-16
-14
-11
-7
-4
-2
-2
-7
-14
-18
-10
20
77
161
262
362
440
476
462
398
298
183
70
-26
-99
-148
-177
-189
-190
-183
-170
-155
-138
-121
-104
-88
-72
-57
-43
-30
-18
-5
6
16
24
30
34
36
37
38
37
37
38
40
46
53
62
72
81
91
99
105
111
116
120
124
127
130
133
134
132
127
116
100
77
49
17
-17
-50
-77
-99
-113
-122
-125
-123
-119
-114
-107
-100
-93
-84
-75
-64
-54
-45
-38
-32
-27
-21
-13
-4
5
12
17
18
18
17
17
17
18
19
20
22
24
27
29
31
32
33
33
33
33
33
33
32
31
29
26
25
23
23
24
25
27
29
32
35
37
39
41
42
42
40
38
34
32
32
35
39
45
51
57
62
66
66
63
55
44
32
21
13
10
9
12
17
22
25
27
26
21
15
9
3
-3
-8
-9
-1
25
72
140
222
302
363
388
369
311
224
128
38
-34
-83
-112
-126
-129
-128
-122
-114
-104
-92
-78
-63
-49
-37
-26
-17
-7
4
15
25
33
38
42
45
48
51
55
56
57
56
55
55
59
65
73
82
90
96
102
109
115
121
126
130
132
132
130
125
117
105
88
65
38
6
-28
-61
-90
-112
-127
-134
-136
-134
-131
-126
-121
-115
-107
-97
-85
-72
-60
-49
-41
-36
-33
-30
-26
-20
-14
-7
-3
-2
-3
-4
-5
-5
-5
-5
-5
-5
-2
2
7
10
12
12
11
10
10
12
13
14
14
12
10
7
3
-2
-5
-8
-9
-10
-10
-10
-8
-6
-3
-1
0
-1
-3
-6
-8
-9
-8
-5
-2
1
4
7
10
14
19
24
28
29
27
24
19
12
4
-5
-15
-24
-32
-37
-41
-43
-44
-43
-41
-38
-34
-32
-32
-35
-40
-45
-43
-29
5
62
141
231
315
376
399
376
311
218
112
10
-77
-143
-188
-215
-226
-225
-215
-200
-183
-165
-148
-131
-116
-100
-86
-75
-65
-58
-54
-50
-47
-44
-40
-36
-31
-26
-20
-13
-6
0
5
9
12
17
22
28
34
39
42
46
49
52
54
56
56
55
52
47
39
28
14
-5
-28
-53
-79
-102
-123
-140
-154
-165
-173
-176
-175
-169
-160
-149
-137
-127
-118
-111
-105
-99
-94
-89
-83
-78
-74
-71
-68
-66
-63
-60
-56
-51
-46
-40
-35
-33
-33
-36
-39
-42
-46
-49
-51
-52
-51
-48
-42
-37
-32
-30
-30
-32
-34
-35
-34
-33
-32
-31
-32
-34
-35
-37
-37
-36
-35
-33
-32
-31
-31
-32
-32
-31
-30
-28
-26
-25
-24
-24
-23
-22
-20
-18
-14
-10
-6
-3
-2
-4
-10
-19
-29
-39
-48
-55
-61
-63
-62
-58
-51
-43
-35
-28
-26
-28
-34
-43
-51
-51
-37
-1
61
144
237
321
377
393
363
293
196
91
-10
-94
-156
-197
-218
-225
-219
-207
-191
-173
-154
-135
-118
-104
-92
-83
-75
-68
-61
-55
-49
-43
-37
-31
-24
-16
-8
-1
5
9
12
14
18
22
28
37
46
54
60
64
65
65
66
67
68


67
66
62
58
51
41
28
11
-9
-32
-57
-81
-104
-123
-138
-148
-153
-153
-148
-138
-126
-113
-100
-90
-82
-77
-72
-70
-67
-64
-61
-56
-50
-43
-35
-27
-19
-13
-11
-12
-16
-20
-25
-27
-27
-24
-20
-16
-13
-12
-11
-10
-7
-2
3
7
9
8
4
0
-3
-4
-3
1
4
6
5
4
2
0
-3
-5
-8
-10
-11
-10
-8
-5
-2
-1
-1
-2
-2
-3
-4
-5
-7
-9
-11
-11
-9
-7
-4
1
6
11
18
23
26
28
26
22
17
10
4
-1
-5
-8
-11
-15
-18
-20
-21
-22
-21
-21
-21
-22
-26
-32
-38
-39
-29
0
52
128
219
310
381
416
404
348
258
152
46
-46
-119
-169
-197
-207
-203
-190
-173
-155
-138
-123
-109
-95
-83
-71
-59
-46
-33
-21
-11
-3
2
5
7
9
10
12
14
19
25
32
41
50
58
64
68
70
72
73
74
76
79
83
89
94
98
101
100
95
85
72
53
31
5
-24
-52
-78
-100
-116
-125
-129
-128
-125
-120
-113
-106
-98
-88
-78
-67
-57
-48
-39
-32
-25
-19
-14
-12
-10
-10
-9
-6
-1
6
12
18
23
26
26
25
23
19
16
12
10
8
6
4
4
4
6
8
10
13
15
18
20
23
24
25
23
21
19
18
18
21
23
26
26
25
23
21
19
17
15
14
15
18
23
29
34
36
34
30
24
18
14
12
11
12
13
16
18
21
23
25
26
29
31
34
36
38
38
39
40
42
45
48
48
45
39
30
21
12
4
-2
-7
-12
-15
-17
-15
-12
-7
-4
-3
-4
-5
-2
12
44
99
176
266
354
421
450
432
369
275
167
62
-28
-96
-142
-169
-182
-182
-175
-162
-146
-127
-108
-89
-71
-57
-45
-35
-25
-15
-5
5
12
18
20
22
23
24
27
32
37
43
50
58
68
78
87
96
103
109
114
119
123
125
126
126
125
123
120
113
104
93
78
59
38
14
-12
-39
-64
-88
-108
-124
-135
-140
-139
-135
-128
-119
-108
-95
-81
-67
-54
-43
-36
-33
-31
-30
-28
-24
-19
-14
-9
-6
-3
-1
4
9
15
21
25
27
27
26
23
20
16
12
9
8
8
11
14
20
25
30
33
35
34
32
28
24
20
17
14
14
15
18
20
23
25
26
27
27
27
25
23
22
22
24
27
32
34
36
35
33
30
28
27
28
29
30
31
32
32
30
27
25
24
25
29
34
42
50
56
60
61
58
52
42
32
22
12
5
-1
-4
-6
-6
-5
-4
-3
-3
-5
-9
-16
-23
-26
-16
15
73
158
261
363
443
481
469
407
309
193
78
-21
-98
-150
-180
-191
-190
-180
-164
-146
-126
-106
-87
-71
-57
-46
-35
-26
-17
-10
-4
0
3
6
9
14
20
26
32
37
43
49
55
61
68
73
79
84
89
94
98
103
108
112
115
116
116
114
110
103
92
78
58
35
8
-21
-50
-79
-105
-127
-144
-155
-159
-157
-149
-138
-125
-113
-102
-93
-85
-79
-72
-64
-54
-42
-30
-18
-9
-2
2
5
7
10
12
14
14
13
12
11
11
12
14
17
20
22
22
22
22
22
23
24
24
24
22
19
15
12
10
11
12
16
20
24
28
30
30
27
24
20
16
12
9
8
7
7
8
9
10
10
9
8
7
9
11
16
20
25
28
31
33
35
37
39
41
41
39
34
27
20
13
6
-1
-7
-12
-15
-16
-16
-14
-13
-13
-14
-17
-20
-23
-20
-4
31
90
171
262
346
403
417
382
306
204
97
0
-77
-130
-163
-177
-179
-172
-160
-146
-132
-117
-103
-88
-73
-57
-42
-27
-16
-7
-2
0
2
4
8
13
20
26
33
39
45
49
53
56
58
61
64
70
78
86
95
104
112
121
128
135
139
141
139
132
119
100
77
48
17
-15
-48
-78
-104
-123
-134
-139
-140
-139
-138
-136
-132
-127
-120
-111
-100
-88
-76
-65
-55
-47
-40
-34
-28
-23
-17
-11
-7
-3
-1
0
0
2
4
7
10
13
15
16
17
17
17
17
18
19
21
21
19
16
12
8
5
1
-3
-8
-13
-17
-20
-20
-18
-15
-12
-10
-9
-7
-6
-4
-1
2
5
9
11
12
12
13
16
21
27
35
41
45
46
45
42
37
31
23
13
3
-7
-15
-21
-24
-25
-23
-21
-18
-14
-11
-9
-9
-14
-21
-27
-25
-7
36
104
192
287
371
423
431
391
312
210
103
5
-74
-131
-170
-191
-198
-195
-186
-172
-157
-140
-124
-108
-93
-79
-67
-55
-45
-34
-25
-15
-7
0
6
10
13
15
18
21
25
28
31
34
37
40
45
51
58
66
76
85
93
100
104
106
106
102
96
86
70
51
27
2
-24
-50
-73
-95
-114
-129
-140
-147
-149
-148
-143
-136
-126
-116
-106
-97
-89
-83
-78
-75
-72
-68
-62
-55
-47
-39
-32
-26
-23
-22
-23
-24
-25
-25
-25
-22
-19
-16
-13
-11
-10
-10
-10
-10
-9
-8
-7
-7
-7
-7
-9
-10
-12
-14
-17
-20
-23
-25
-25
-25
-24
-23
-21
-19
-17
-16
-16
-16
-14
-13
-11
-8
-7
-5
-3
0
4
7
9
9
9
8
6
4
0
-4
-9
-15
-22
-28
-32
-35
-35
-34
-33
-33
-34
-35
-37
-40
-44
-47
-43
-26
12
78
167
268
362
428
449
418
342
237
122
14
-76
-142
-186
-210
-219
-216
-207
-193
-177
-159
-141
-122
-105
-89
-74
-61
-49
-38
-29
-21
-14
-9
-4
0
3
6
8
10
13
17
23
30
38
47
54
61
68
75
81
88
93
96
98
99
98
97
93
87
76
60
37
10
-19
-46
-71
-93
-112
-130
-145
-157
-165
-167
-164
-156
-146
-134
-122
-110
-99
-90
-81
-73
-66
-58
-51
-43
-35
-28
-23
-20
-18
-18
-19
-20
-20
-20
-20
-19
-17
-13
-9
-3
3
8
10
11
9
6
2
-2
-6
-12
-17
-22
-26
-27
-27
-25
-24
-21
-19
-14
-9
-3
3
9
12
12
10
7
4
3
4
8
13
18
22
26
29
30
27
21
11
0
-10
-19
-25
-29
-31
-32
-30
-26
-21
-15
-10
-8
-8
-12
-19
-26
-27
-15
19
78
160
252
335
390
401
365
289
188
83
-13
-89
-142
-175
-190
-191
-182
-165
-144
-123
-102
-83
-67
-52
-40
-30
-22
-17
-14
-12
-11
-10
-8
-4
1
8
17
25
33
41
47
52
57
62
67
73
79
83
87
91
94
98
101
102
100
97
92
86
80
72
59
41
18
-9
-38
-66
-90
-110
-125
-135
-141
-143
-142
-140
-137
-131
-124
-113
-101
-89
-78
-69
-63
-57
-52
-47
-42
-36
-31
-27
-24
-21
-19
-16
-12
-7
-3
0
1
1
0
-1
0
2
5
8
11
12
13
13
12
12
11
9
7
5
3
2
1
-1
-1
-2
-3
-3
-3
-3
-2
-1
2
8
14
22
28
33
36
37
36
33
27
21
13
5
-2
-8
-12
-14
-14
-12
-9
-6
-5
-5
-8
-12
-17
-23
-26
-25
-11
21
76
152
241
323
382
401
373
304
210
108
15
-60
-113
-147
-165
-172
-169
-160
-146
-128
-110
-93
-77
-63
-52
-42
-33
-24
-15
-7
1
8
13
17
21
24
27
30
33
35
38
41
45
50
55
63
71
79
86
94
101
108
114
120
124
126
127
124
117
105
86
62
34
3
-29
-59
-87
-110
-127
-139
-145
-147
-144
-138
-130
-120
-109
-98
-86
-74
-62
-52
-43
-37
-34
-33
-32
-31
-30
-27
-23
-19
-14
-9
-4
-1
1
1
1
1
2
3
6
9
11
13
13
12
10
7
4
2
2
2
3
5
8
9
9
7
6
4
3
3
4
5
6
8
10
10
10
9
9
9
10
9
9
9
11
15
20
26
32
37
40
40
37
31
22
13
4
-4
-9
-12
-14
-16
-16
-16
-15
-13
-12
-12
-14
-18
-25
-30
-30
-17
17
77
163
265
366
444
481
468
405
306
189
74
-27
-105
-159
-192
-208
-210
-203
-188
-169
-147
-124
-103
-84
-69
-57
-48
-40
-32
-25
-19
-14
-9
-6
-3
0
5
11
19
26
33
38
42
46
52
58
66
74
81
89
96
103
109
114
119
121
121
118
111
99
82
59
32
3
-27
-55
-80
-102
-119
-130
-137
-140
-139
-136
-132
-126
-120
-112
-105
-96
-87
-78
-69
-60
-51
-42
-35
-29
-25
-24
-23
-22
-20
-17
-13
-10
-8
-6
-3
-1
2
4
6
6
6
4
3
2
2
2
2
1
0
-1
0
1
2
2
2
1
0
-1
-2
-3
-5
-7
-8
-8
-7
-6
-4
-1
2
5
8
10
12
12
12
11
10
9
10
12
17
22
27
31
30
27
20
12
3
-6
-13
-20
-24
-27
-28
-28
-27
-27
-26
-25
-26
-27
-29
-32
-35
-34
-24
3
52
125
216
310
387
429
424
372
283
174
63
-35
-113
-168
-203
-220
-223
-215
-200
-180
-160
-141
-124
-109
-97
-85
-75
-66
-58
-50
-43
-35
-27
-20
-12
-6
-2
1
3
6
10
16
23
29
34
39
45
52
60
69
79
88
95
100
101
100
96
89
79
67
52
33
9
-18
-47
-77
-103
-125
-142
-155
-164
-168
-169
-166
-161
-153
-144
-134
-124
-115
-107
-99
-93
-86
-80
-74
-69
-64
-58
-53
-48
-43
-39
-36
-33
-30
-27
-25
-22
-19
-18
-17
-17
-18
-19
-19
-18
-17
-16
-16
-16
-17
-18
-19
-20
-20
-20
-18
-16
-14
-13
-13
-13
-14
-17
-21
-26
-30
-33
-35
-35
-35
-34
-33
-30
-27
-22
-18
-14
-12
-12
-11
-11
-10
-8
-6
-3
-1
2
3
3
0
-4
-10
-16
-22
-27
-31
-33
-35
-37
-39
-41
-43
-45
-46
-48
-50
-54
-57
-58
-53
-33
8
71
153
242
317
360
359
312
230
129
30
-55
-119
-161
-183
-191
-188
-178
-165
-149
-131
-113
-95
-79
-66
-56
-48
-43
-39
-36
-32
-27
-22
-16
-8
-1
6
11
15
17
20
22
27
33
40
49
57
64
70
73
76
79
82
86
90
95
99
101
99
93
80
60
33
3
-29
-60
-88
-111
-129
-142
-150
-152
-150
-144
-137
-130
-124
-118
-112
-105
-96
-87
-78
-69
-62
-57
-52
-47
-41
-33
-26
-20
-16
-16
-17
-19
-20
-19
-16
-13
-9
-8
-7
-8
-8
-8
-7
-6
-4
-3
-3
-4
-5
-6
-7
-7
-6
-4
-3
-2
-2
-3
-4
-4
-4
-4
-2
-1
1
2
4
5
5
5
4
2
1
-1
-2
-3
-6
-9
-13
-17
-18
-19
-17
-13
-7
0
6
10
11
8
3
-3
-8
-12
-13
-13
-12
-11
-10
-8
-6
-3
0
4
7
11
14
19
24
28
33
36
38
39
38
36
32
26
18
9
-2
-11
-18
-22
-24
-23
-22
-21
-21
-21
-22
-23
-26
-29
-33
-36
-34
-22
9
63
141
236
333
413
457
454
402
314
203
91
-11
-94
-154
-192
-212
-216
-208
-191
-169
-144
-121
-101
-87
-77
-69
-62
-54
-46
-37
-28
-20
-12
-5
3
10
17
24
31
37
42
47
51
56
62
68
75
82
90
97
104
109
112
114
114
113
111
109
106
100
91
77
58
35
10
-17
-43
-68
-90
-108
-122
-132
-137
-137
-135
-128
-119
-108
-96
-84
-73
-63
-55
-48
-42
-36
-32
-28
-24
-20
-16
-11
-6
-2
3
6
7
7
6
6
6
7
8
10
12
14
16
16
16
13
9
5
3
2
3
6
10
14
18
20
19
17
12
6
2
0
0
2
5
8
11
13
15
17
18
18
18
17
16
14
11
8
4
1
-3
-5
-5
-4
-2
0
1
1
0
-2
-3
-3
-4
-4
-3
-2
-2
-1
0
0
1
2
3
4
7
9
11
12
12
13
14
18
24
31
37
42
45
46
43
39
31
21
10
1
-7
-11
-13
-13
-12
-11
-10
-9
-8
-8
-9
-12
-18
-25
-30
-27
-9
32
100
193
298
396
466
490
461
386
279
161
49
-46
-117
-166
-195
-208
-209
-199
-185
-166
-146
-126
-106
-86
-68
-53
-39
-27
-18
-12
-8
-5
-2
0
2
5
9
13
20
28
37
46
55
63
71
80
88
95
101
104
106
107
109
113
118
123
125
125
119
107
90
67
41
11
-19
-48
-75
-98
-116
-130
-137
-139
-138
-134
-129
-124
-119
-113
-107
-100
-93
-84
-76
-66
-55
-45
-35
-26
-19
-15
-13
-12
-13
-14
-14
-13
-11
-8
-4
0
3
5
6
6
6
6
7
7
7
8
8
9
9
9
9
9
9
9
8
7
6
4
4
4
5
7
8
8
9
9
9
8
9
9
11
12
14
14
14
12
10
8
6
3
1
1
2
4
8
11
13
15
16
17
16
16
15
13
12
11
11
11
11
11
12
13
16
20
27
34
40
45
48
49
48
46
42
36
27
16
6
-2
-8
-13
-16
-17
-17
-16
-14
-11
-7
-5
-4
-6
-10
-13
-10
7
46
106
183
262
327
359
350
301
222
130
42
-33
-88
-123
-142
-148
-146
-138
-126
-113
-100
-86
-72
-60
-48
-39
-33
-27
-21
-13
-4
5
14
21
25
28
30
31
33
36
38
41
45
50
55
62
68
74
80
86
93
99
105
111
115
119
122
123
121
116
106
91
70
43
13
-19
-50
-80
-105
-125
-139
-147
-150
-150
-146
-140
-132
-122
-111
-99
-87
-76
-66
-56
-48
-41
-35
-31
-28
-25
-22
-18
-13
-8
-4


-1
1
2
2
2
2
2
2
3
3
5
6
8
10
10
10
9
8
8
10
11
12
11
10
7
5
3
2
1
2
3
4
5
6
7
7
8
8
9
9
8
6
4
2
-1
-2
-3
-3
-3
-2
0
3
6
8
8
8
7
6
6
6
6
5
4
3
3
3
4
6
8
11
13
17
21
25
30
35
39
42
43
42
39
34
27
19
10
1
-8
-15
-20
-24
-25
-25
-25
-24
-23
-24
-26
-30
-33
-32
-22
5
54
126
215
308
388
435
438
393
310
205
96
-3
-81
-138
-174
-193
-198
-193
-180
-163
-143
-124
-106
-90
-76
-63
-52
-42
-33
-26
-20
-14
-8
-2
5
11
17
23
28
33
38
41
43
45
48
51
55
60
66
73
81
90
98
106
112
116
117
115
110
103
92
78
59
36
9
-19
-49
-77
-103
-124
-140
-151
-155
-153
-148
-138
-127
-115
-102
-91
-79
-70
-62
-56
-52
-48
-45
-41
-36
-32
-27
-22
-18
-15
-12
-10
-7
-5
-4
-3
-4
-4
-5
-6
-6
-7
-7
-7
-6
-4
-2
0
1
1
1
1
0
-1
-2
-2
0
1
1
-1
-4
-6
-6
-4
-1
1
2
1
0
-1
-1
-1
-1
-3
-4
-5
-5
-5
-4
-3
0
2
3
3
2
-1
-4
-5
-5
-3
1
4
5
5
3
2
2
4
7
11
17
23
30
35
39
40
38
33
25
13
1
-12
-23
-32
-37
-38
-37
-35
-30
-25
-20
-17
-17
-19
-23
-28
-28
-17
13
67
144
233
319
384
410
390
328
235
130
30
-54
-115
-154
-175
-182
-180
-171
-159
-145
-129
-112
-96
-81
-66
-52
-40
-28
-20
-13
-10
-8
-6
-4
-1
3
8
12
18
22
27
31
34
38
41
46
53
60
69
78
88
97
103
108
110
111
112
111
108
99
85
66
42
15
-14
-42
-70
-95
-116
-132
-143
-149
-151
-150
-146
-141
-132
-122
-111
-98
-86
-75
-65
-57
-51
-47
-43
-39
-34
-29
-25
-21
-18
-15
-13
-11
-10
-9
-8
-8
-7
-6
-5
-4
-2
-1
0
0
-1
-4
-7
-10
-11
-10
-8
-5
-3
-2
-1
-1
0
1
3
4
5
5
4
3
1
-1
-2
-3
-3
-3
-4
-4
-4
-3
-1
1
3
4
4
6
9
14
20
26
30
33
33
32
30
26
23
18
12
4
-5
-13
-20
-24
-24
-22
-19
-17
-16
-15
-15
-16
-17
-19
-23
-26
-22
-3
37
101
184
271
346
390
391
347
267
166
63
-28
-99
-147
-174
-184
-182
-172
-157
-141
-125
-110
-95
-82
-69
-58
-48
-39
-32
-24
-18
-12
-7
-2
2
8
13
18
21
23
23
24
27
32
38
46
54
64
73
83
92
99
105
109
111
113
113
111
106
97
83
65
42
15
-14
-43
-72
-98
-120
-136
-148
-153
-154
-150
-144
-137
-128
-119
-111
-102
-94
-85
-76
-67
-58
-50
-44
-39
-36
-33
-31
-27
-24
-21
-17
-13
-10
-8
-7
-7
-7
-7
-5
-2
1
3
3
2
-1
-4
-6
-6
-3
0
4
6
8
7
5
3
2
1
0
-1
-3
-7
-10
-12
-13
-13
-10
-6
-1
4
9
12
13
12
10
8
7
6
6
5
5
4
4
5
7
11
17
22
28
33
37
38
36
31
23
13
3
-7
-16
-22
-27
-30
-32
-32
-30
-27
-23
-18
-14
-12
-13
-16
-15
-4
25
75
146
226
300
351
365
338
273
184
89
0
-72
-123
-154
-168
-170
-163
-152
-137
-122
-107
-93
-80
-69
-60
-51
-42
-33
-24
-16
-9
-2
3
8
13
16
19
20
21
23
24
27
31
36
43
51
60
70
80
90
97
102
105
106
106
106
104
101
94
83
69
50
26
0
-28
-56
-82
-104
-121
-131
-137
-138
-138
-137
-135
-132
-128
-121
-111
-100
-89
-80
-72
-65
-59
-53
-47
-41
-35
-29
-24
-20
-17
-14
-13
-12
-12
-12
-14
-15
-16
-17
-17
-15
-12
-8
-3
2
6
8
8
8
6
4
1
-2
-6
-9
-11
-12
-11
-10
-8
-7
-5
-4
-2
0
2
4
5
4
2
-2
-5
-8
-9
-10
-10
-9
-8
-6
-6
-5
-4
0
5
12
20
26
31
33
33
30
26
20
12
3
-6
-13
-18
-21
-21
-20
-19
-17
-16
-15
-16
-19
-23
-28
-33
-32
-22
5
54
124
209
297
368
407
404
359
281
184
84
-7
-81
-137
-174
-194
-200
-194
-182
-164
-145
-127
-109
-93
-79
-67
-56
-47
-37
-28
-20
-12
-5
0
4
6
8
10
11
13
17
21
27
35
43
52
60
67
72
77
82
86
91
95
98
100
102
103
100
94
82
65
44
19
-8
-36
-62
-86
-106
-121
-130
-135
-136
-134
-129
-122
-112
-101
-90
-81
-74
-69
-66
-62
-57
-52
-46
-38
-31
-24
-19
-16
-13
-12
-10
-8
-8
-8
-9
-11
-12
-11
-11
-9
-6
-3
0
4
5
6
5
3
1
-2
-4
-6
-10
-14
-19
-21
-20
-15
-9
-1
6
12
15
15
13
9
3
-2
-6
-8
-9
-8
-5
-1
3
6
9
10
9
7
6
6
9
13
17
20
22
23
24
25
24
20
13
4
-6
-14
-20
-22
-23
-22
-19
-16
-12
-9
-10
-16
-25
-36
-44
-43
-26
13
79
165
263
354
419
442
417
348
248
136
30
-60
-126
-171
-197
-207
-207
-198
-183
-165
-145
-125
-106
-89
-74
-61
-50
-40
-33
-28
-25
-23
-21
-19
-14
-9
-2
5
12
18
23
27
30
33
35
38
43
51
60
69
78
84
89
92
93
92
89
84
77
68
54
36
12
-16
-46
-76
-104
-127
-146
-160
-170
-176
-178
-176
-171
-161
-150
-136
-122
-109
-96
-84
-75
-68
-65
-63
-63
-62
-61
-60
-58
-55
-53
-50
-46
-42
-38
-37
-37
-39
-43
-48
-50
-51
-49
-46
-43
-41
-40
-40
-41
-42
-43
-43
-43
-41
-39
-38
-36
-36
-37
-38
-40
-41
-43
-44
-46
-48
-50
-52
-54
-55
-56
-57
-57
-57
-55
-53
-49
-45
-41
-38
-37
-39
-43
-47
-51
-54
-54
-52
-48
-42
-35
-29
-22
-17
-14
-14
-17
-24
-35
-47
-58
-68
-74
-77
-78
-76
-73
-70
-67
-65
-64
-65
-68
-73
-79
-85
-85
-73
-40
19
102
199
293
364
394
376
312
216
106
-1
-92
-162
-210
-239
-252
-254
-247
-234
-220
-204
-188
-173
-158
-144
-130
-116
-102
-89
-76
-66
-57
-51
-47
-43
-39
-35
-31
-27
-24
-21
-18
-15
-10
-4
4
13
25
36
47
55
61
65
68
70
72
73
71
65
54
40
20
-4
-31
-61
-91
-119
-143
-163
-178
-187
-191
-191
-188
-182
-175
-167
-158
-150
-140
-130
-118
-105
-93
-82
-74
-67
-62
-58
-56
-55
-55
-55
-54
-51
-48
-43
-39
-35
-31
-28
-26
-25
-24
-23
-23
-23
-22
-22
-22
-22
-23
-24
-26
-26
-26
-26
-25
-26
-27
-27
-26
-24
-22
-20
-19
-19
-19
-18
-18
-17
-17
-16
-16
-15
-14
-13
-13
-13
-13
-15
-18
-20
-23
-25
-25
-24
-21
-16
-11
-6
-1
3
7
10
14
17
20
21
22
21
20
16
11
4
-4
-11
-18
-24
-28
-31
-33
-34
-35
-35
-35
-35
-35
-37
-41
-46
-49
-45
-25
19
88
180
281
371
430
440
401
318
209
95
-9
-93
-154
-193
-213
-219
-215
-202
-185
-165
-144
-124
-105
-88
-74
-62
-52
-44
-37
-32
-28
-23
-18
-13
-7
-1
6
12
19
25
32
38
45
53
61
67
73
77
81
85
90
95
100
103
105
107
106
105
100
91
76
54
28
-3
-36
-68
-98
-124
-144
-158
-165
-168
-167
-163
-156
-147
-137
-125
-113
-101
-89
-79
-71
-63
-57
-51
-45
-40
-35
-31
-26
-22
-18
-16
-15
-15
-15
-15
-13
-11
-8
-5
-3
-3
-4
-6
-8
-10
-12
-12
-11
-10
-7
-4
-2
1
3
5
7
9
10
10
9
7
5
1
-2
-4
-6
-8
-10
-12
-14
-15
-14
-12
-8
-5
-3
0
2
6
11
16
20
22
23
22
21
21
22
26
32
38
42
45
43
39
32
24
16
8
1
-5
-11
-14
-17
-18
-18
-16
-14
-12
-11
-12
-16
-22
-26
-22
-2
40
107
192
281
355
395
389
337
250
146
44
-42
-105
-145
-166
-171
-165
-152
-134
-115
-96
-79
-64
-51
-40
-30
-22
-15
-9
-3
3
8
12
17
21
25
29
33
37
42
46
50
54
58
63
68
74
81
87
95
103
112
120
126
131
134
135
134
130
123
111
94
70
42
10
-22
-53
-80
-102
-120
-132
-139
-141
-139
-134
-128
-120
-113
-105
-95
-85
-73
-62
-52
-43
-35
-27
-20
-12
-5
1
5
7
8
9
9
11
14
17
20
22
24
25
25
25
24
23
21
20
20
22
25
28
30
31
31
31
31
30
29
28
25
22
18
15
12
11
12
13
16
19
20
20
20
19
20
22
26
32
37
43
48
53
58
63
65
67
66
63
58
50
41
31
21
14
9
6
5
5
5
5
5
5
4
2
1
-1
0
7
25
62
120
198
285
365
417
428
393
319
222
120
28
-44
-94
-125
-139
-142
-136
-125
-111
-95
-81
-69
-59
-49
-40
-31
-22
-13
-5
2
8
13
18
24
30
36
42
48
54
59
62
65
67
70
76
83
92
101
110
116
122
125
128
131
134
135
135
133
127
115
97
74
47
17
-12
-40
-66
-88
-106
-120
-128
-132
-131
-126
-117
-105
-91
-77
-65
-56
-48
-42
-38
-35
-32
-28
-25
-21
-15
-9
-4
0
4
7
12
18
23
26
28
30
30
30
31
31
31
30
30
31
32
32
32
32
31
31
31
30
29
28
28
27
26
23
20
17
15
16
18
21
24
27
30
33
36
39
40
40
38
37
36
37
41
47
54
61
66
67
64
57
48
38
27
18
10
4
1
-1
-1
-1
0
1
3
4
5
4
1
-3
-6
-3
16
56
122
210
309
401
465
485
455
381
277
163
55
-35
-103
-149
-175
-185
-185
-176
-163
-145
-127
-107
-88
-70
-54
-40
-27
-18
-10
-5
-1
3
8
13
18
22
27
32
37
42
48
54
62
71
80
89
96
102
108
115
121
127
131
132
131
129
126
122
115
106
91
72
47
20
-9
-36
-61
-82
-99
-112
-121
-125
-126
-124
-120
-113
-106
-97
-86
-76
-65
-55
-47
-38
-31
-23
-16
-11
-8
-7
-6
-6
-4
-1
3
6
8
9
9
10
11
11
10
9
7
7
7
8
10
12
14
16
17
19
21
22
23
24
23
22
19
15
11
8
7
7
9
11
13
14
13
12
12
13
16
20
26
32
39
45
50
53
55
54
50
43
35
26
17
7
-1
-8
-12
-12
-11
-7
-4
-2
-1
-2
-5
-10
-17
-23
-25
-16
12
66
145
243
343
425
469
464
410
319
208
96
-3
-82
-140
-178
-199
-203
-196
-181
-162
-143
-126
-109
-94
-79
-65
-52
-39
-27
-16
-6
2
7
11
14
16
18
21
25
31
38
45
52
58
65
72
80
88
96
103
110
116
122
127
132
135
134
131
123
111
94
74
50
23
-5
-35
-64
-91
-112
-128
-138
-142
-142
-140
-134
-126
-117
-107
-96
-85
-75
-66
-57
-49
-42
-35
-29
-23
-18
-14
-12
-11
-10
-10
-8
-5
-1
3
6
9
12
14
16
17
19
21
23
24
23
20
15
10
7
5
5
6
5
5
4
4
5
6
7
7
8
8
9
10
12
12
13
14
16
19
24
30
36
42
47
49
48
44
36
25
13
3
-6
-13
-17
-19
-19
-17
-13
-8
-4
-1
1
-1
-5
-12
-21
-29
-31
-21
8
62
139
228
314
376
399
376
312
220
118
22
-57
-115
-151
-169
-173
-167
-155
-140
-125
-110
-95
-79
-63
-48
-35
-25
-18
-14
-11
-9
-6
-2
3
8
13
17
19
22
27
33
42
51
62
71
80
87
93
98
102
106
110
115
119
121
121
118
112
104
92
77
58
35
8
-20
-49
-78
-103
-124
-140
-149
-153
-153
-149
-143
-135
-125
-113
-101
-89
-77
-66
-56
-47
-39
-32
-27
-25
-24
-24
-25
-26
-26
-24
-22
-18
-15
-11
-8
-4
0
5
9
13
16
18
19
18
16
12
8
4
1
-1
0
2
4
6
7
6
5
4
3
3
2
1
-1
-3
-6
-9
-10
-10
-10
-8
-6
-4
-2
1
4
8
11
13
15
15
13
11
10
10
13
17
21
24
25
23
19
13
6
-2
-9
-14
-17
-18
-17
-16
-16
-17
-19
-22
-25
-28
-32
-37
-42
-43
-35
-11
37
113
211
316
409
468
478
436
350
238
117
5
-87
-154
-198
-221
-229
-224
-212
-194
-173
-152
-131
-112
-96
-83
-72
-62
-51
-40
-29
-20
-13
-8
-6
-4
-2
1
7
13
21
29
36
42
48
54
61
68
76
83
90
96
100
104
107
109
110
109
104
94
80
60
37
10
-18
-46
-72
-97
-117
-132
-143
-149
-150
-148
-141
-131
-119
-108
-97
-88
-80
-74
-69
-65
-61
-56
-52
-47
-42
-37
-32
-27
-21
-16
-11
-9
-8
-9
-9
-9
-8
-7
-6
-6
-6
-5
-2
2
6
9
11
12
11
10
8
6
5
3
0
-3
-4
-5
-4
-2
0
1
-1
-2
-4
-6
-7
-8
-8
-8
-8
-7
-6
-6
-7
-6
-5
-2
2
6
10
13
17
21
25
30
33
34
35
36
35
32
28
22
13
3
-9
-20
-29
-35


-39
-39
-37
-33
-28
-26
-24
-25
-27
-30
-33
-32
-20
10
67
149
250
352
435
478
468
408
309
191
74
-27
-107
-163
-199
-218
-223
-218
-204
-187
-168
-149
-132
-117
-104
-92
-81
-70
-57
-45
-32
-20
-9
-1
6
11
15
18
21
24
26
30
33
38
44
52
60
68
76
83
90
95
99
103
107
110
112
110
104
92
75
53
27
-1
-31
-61
-88
-113
-135
-153
-167
-175
-178
-176
-169
-157
-144
-131
-120
-110
-101
-92
-83
-74
-66
-60
-54
-49
-45
-40
-36
-32
-28
-24
-20
-17
-13
-9
-7
-6
-6
-7
-8
-10
-11
-10
-8
-5
-3
-3
-4
-6
-8
-10
-12
-12
-12
-11
-10
-8
-7
-6
-6
-5
-5
-5
-6
-8
-10
-12
-13
-13
-12
-11
-9
-6
-3
1
3
5
6
6
6
6
5
4
3
3
4
8
13
19
23
26
26
24
20
15
8
2
-5
-11
-17
-22
-26
-29
-31
-31
-31
-30
-30
-30
-32
-35
-37
-35
-22
9
62
135
218
296
352
371
346
282
192
93
1
-73
-126
-158
-174
-176
-170
-159
-144
-127
-111
-94
-79
-66
-55
-48
-43
-39
-33
-26
-18
-10
-5
-1
2
3
6
8
12
17
22
28
35
42
51
61
71
80
88
93
96
99
101
103
106
107
107
105
100
90
75
54
28
-2
-34
-64
-91
-113
-132
-147
-157
-162
-163
-159
-151
-140
-128
-114
-101
-90
-80
-73
-68
-64
-60
-56
-52
-48
-43
-39
-34
-30
-26
-23
-19
-15
-11
-8
-5
-1
2
3
4
3
2
2
2
4
5
6
5
3
-1
-6
-10
-14
-16
-16
-14
-11
-8
-5
-3
-1
1
1
-1
-3
-5
-7
-8
-8
-8
-8
-8
-8
-7
-7
-6
-6
-7
-8
-9
-11
-11
-11
-10
-10
-9
-8
-7
-5
-1
2
5
7
8
9
9
10
10
11
13
16
21
26
29
31
29
25
18
10
1
-9
-16
-22
-25
-25
-25
-24
-23
-22
-21
-19
-19
-21
-26
-33
-39
-37
-22
16
79
167
267
362
432
459
436
367
268
155
47
-47
-119
-170
-202
-217
-219
-211
-196
-175
-153
-129
-108
-90
-75
-64
-55
-46
-38
-30
-23
-18
-13
-8
-3
1
6
12
18
25
32
38
45
51
56
62
67
72
77
82
87
93
99
104
109
113
115
114
110
100
84
63
37
9
-21
-50
-75
-96
-114
-127
-138
-144
-147
-145
-139
-129
-119
-108
-97
-89
-81
-74
-68
-63
-57
-51
-44
-38
-33
-28
-23
-18
-13
-8
-4
-1
-1
-2
-4
-7
-9
-10
-10
-10
-9
-7
-6
-3
0
3
6
6
4
1
-3
-7
-10
-12
-12
-10
-7
-3
1
4
5
5
4
3
2
1
0
0
-1
-2
-3
-4
-4
-4
-4
-3
-2
-2
-1
-1
0
1
2
2
0
-3
-6
-9
-9
-8
-6
-4
-3
-4
-4
-4
-3
-2
-1
2
5
8
10
11
11
8
5
3
3
4
7
12
18
24
28
31
31
27
21
13
5
-2
-8
-13
-16
-19
-21
-22
-23
-23
-23
-23
-22
-21
-22
-24
-26
-25
-13
15
66
140
228
314
381
411
395
335
243
137
35
-51
-116
-157
-180
-187
-183
-172
-157
-140
-123
-107
-93
-80
-69
-58
-48
-39
-31
-24
-20
-17
-15
-12
-8
-4
2
7
13
19
26
34
41
49
56
62
67
71
75
79
85
92
99
104
107
108
106
104
99
92
81
65
44
18
-11
-42
-73
-102
-128
-149
-162
-168
-166
-157
-143
-127
-110
-96
-86
-81
-81
-83
-85
-84
-80
-72
-62
-52
-43
-36
-30
-27
-25
-25
-26
-28
-28
-28
-27
-27
-26
-23
-19
-12
-5
3
10
16
19
19
15
8
1
-5
-9
-10
-10
-10
-11
-13
-15
-15
-14
-12
-10
-10
-12
-16
-22
-27
-32
-34
-33
-30
-24
-18
-12
-6
-3
-1
-1
-3
-9
-17
-26
-33
-37
-35
-27
-16
-5
3
9
12
14
17
19
22
24
27
31
34
37
37
36
32
25
16
6
-4
-12
-19
-24
-26
-26
-25
-23
-20
-18
-17
-17
-20
-24
-29
-35
-40
-40
-29
1
53
127
214
297
358
381
360
299
212
116
25
-51
-107
-144
-163
-168
-164
-154
-141
-128
-114
-101
-87
-74
-62
-52
-44
-39
-34
-30
-25
-19
-12
-3
7
19
30
38
44
46
45
42
39
38
40
43
47
52
56
61
67
75
85
95
105
113
119
120
116
105
87
62
33
1
-32
-63
-90
-112
-128
-140
-146
-148
-146
-143
-139
-134
-127
-120
-112
-105
-97
-91
-84
-77
-69
-59
-49
-39
-31
-25
-22
-21
-20
-21
-22
-23
-24
-24
-23
-19
-14
-10
-6
-4
-2
-1
0
1
3
4
5
5
4
2
-1
-3
-5
-5
-4
-3
-1
1
2
3
5
6
8
8
7
3
-3
-9
-13
-15
-15
-12
-8
-3
2
6
10
12
12
11
9
7
6
5
4
3
0
-4
-7
-8
-7
-3
2
6
9
10
11
11
13
15
19
22
25
26
27
27
27
26
22
14
3
-8
-19
-27
-31
-32
-30
-26
-24
-22
-24
-27
-32
-37
-43
-48
-50
-43
-20
27
101
196
298
390
450
463
426
344
234
114
3
-88
-153
-195
-216
-222
-216
-203
-186
-166
-145
-124
-106
-90
-79
-71
-64
-56
-47
-36
-23
-10
2
12
20
24
28
30
33
36
38
40
41
43
45
48
53
60
68
79
89
99
107
114
119
122
124
122
114
102
85
63
38
9
-21
-52
-82
-109
-130
-146
-155
-159
-158
-154
-146
-134
-121
-107
-94
-82
-72
-64
-57
-52
-48
-45
-43
-40
-36
-31
-25
-19
-14
-9
-5
-2
1
3
4
3
0
-3
-5
-6
-6
-7
-7
-6
-4
0
5
9
11
11
8
4
1
-1
-2
-1
0
1
1
1
0
-1
-1
-1
1
2
3
3
3
1
-2
-4
-6
-5
-4
-2
-2
-2
-4
-6
-9
-10
-10
-8
-6
-3
0
3
6
9
12
16
20
24
28
33
35
36
34
30
25
18
10
2
-6
-13
-20
-26
-31
-34
-35
-34
-31
-27
-24
-20
-18
-19
-22
-27
-30
-23
0
45
115
202
293
369
412
410
362
277
173
67
-28
-102
-154
-185
-198
-199
-190
-176
-159
-141
-123
-105
-88
-74
-62
-53
-46
-40
-36
-32
-29
-25
-20
-13
-7
0
6
12
18
24
30
37
43
48
54
61
68
78
88
99
108
114
117
119
120
121
120
115
106
92
73
49
22
-8
-39
-69
-96
-119
-137
-149
-156
-159
-158
-155
-150
-143
-135
-124
-113
-100
-89
-78
-69
-61
-53
-48
-42
-38
-35
-31
-27
-24
-22
-20
-19
-18
-17
-17
-17
-17
-16
-14
-11
-9
-8
-9
-11
-12
-12
-10
-6
-2
2
3
3
2
-1
-3
-6
-7
-9
-9
-9
-8
-7
-6
-5
-4
-3
-1
2
3
5
6
6
5
4
2
-1
-6
-10
-13
-16
-16
-15
-13
-12
-11
-10
-8
-7
-6
-4
-2
1
4
8
12
17
21
26
30
33
36
37
37
35
31
23
13
2
-9
-19
-26
-30
-32
-31
-27
-23
-18
-15
-13
-15
-20
-26
-32
-35
-28
-4
43
117
212
315
407
467
480
443
360
249
128
15
-79
-150
-197
-223
-234
-232
-222
-207
-188
-168
-148
-127
-108
-90
-73
-59
-47
-37
-29
-21
-14
-7
-3
1
2
3
4
8
13
19
27
35
42
50
57
63
70
76
82
89
95
101
107
111
113
112
109
101
88
70
48
21
-8
-39
-71
-101
-127
-150
-166
-176
-180
-179
-172
-162
-150
-139
-127
-117
-108
-100
-93
-85
-78
-72
-66
-60
-55
-50
-45
-40
-37
-35
-34
-34
-34
-34
-33
-31
-28
-23
-19
-15
-13
-12
-14
-16
-17
-19
-20
-20
-21
-22
-23
-22
-20
-17
-12
-7
-4
-2
-2
-4
-7
-11
-15
-19
-21
-23
-23
-23
-23
-23
-22
-22
-22
-20
-18
-16
-15
-15
-16
-17
-18
-19
-18
-15
-11
-6
0
6
11
15
18
20
19
16
10
1
-11
-23
-34
-44
-51
-54
-53
-49
-43
-38
-35
-35
-40
-47
-55
-58
-50
-22
29
104
192
279
347
377
362
305
216
114
16
-68
-131
-172
-194
-200
-196
-183
-166
-149
-132
-117
-103
-90
-79
-70
-62
-54
-46
-39
-34
-29
-25
-22
-20
-16
-13
-8
-2
6
15
25
34
41
48
54
58
62
66
71
76
81
86
91
95
98
99
98
94
84
69
49
24
-5
-34
-62
-88
-111
-131
-147
-158
-165
-168
-167
-162
-154
-145
-134
-122
-111
-99
-88
-78
-68
-60
-54
-49
-46
-42
-39
-36
-32
-27
-23
-20
-17
-14
-12
-10
-9
-8
-7
-7
-6
-5
-5
-5
-5
-5
-4
-2
0
1
2
1
-1
-3
-4
-6
-7
-9
-11
-12
-13
-13
-13
-12
-9
-5
0
4
7
7
5
3
-1
-4
-5
-5
-3
0
4
7
10
15
19
23
27
29
29
27
22
14
5
-6
-18
-28
-37
-42
-43
-41
-37
-31
-25
-20
-18
-19
-22
-26
-29
-26
-13
18
70
144
231
316
381
408
390
329
237
134
35
-49
-112
-153
-175
-182
-178
-167
-152
-136
-120
-105
-90
-75
-61
-46
-32
-20
-9
-2
2
3
3
2
2
3
5
9
13
18
22
27
32
38
46
55
67
80
92
104
112
117
120
120
119
118
116
112
106
96
82
63
39
11
-20
-52
-81
-107
-127
-141
-149
-152
-151
-147
-141
-134
-125
-117
-108
-98
-87
-76
-65
-54
-45
-37
-30
-23
-18
-14
-12
-9
-7
-5
-2
0
2
4
5
6
7
9
9
9
9
10
11
13
17
19
21
22
21
20
17
14
12
10
10
9
9
8
7
5
2
-1
-3
-4
-5
-4
-1
3
7
10
12
12
9
4
-2
-7
-10
-9
-6
1
9
18
26
32
36
38
38
37
34
28
21
12
3
-6
-14
-21
-25
-27
-26
-22
-16
-12
-9
-10
-14
-22
-29
-31
-21
11
68
151
249
347
423
461
450
393
300
190
80
-17
-94
-150
-186
-205
-208
-200
-185
-167
-147
-128
-110
-93
-77
-62
-47
-34
-23
-13
-6
1
6
12
17
22
26
30
34
39
44
49
54
60
67
73
80
85
91
96
102
108
113
119
122
125
126
124
118
108
93
73
50
25
-3
-31
-60
-86
-110
-128
-140
-146
-147
-144
-138
-129
-119
-108
-96
-84
-72
-62
-53
-45
-37
-31
-24
-19
-15
-12
-11
-9
-7
-6
-5
-3
-2
0
2
5
7
9
10
10
9
9
10
12
16
18
19
17
13
9
6
5
5
6
8
9
10
11
13
14
16
18
19
18
16
12
8
5
3
3
4
5
7
7
8
8
9
11
14
17
21
24
28
31
34
37
39
41
42
41
37
31
22
13
6
0
-4
-8
-10
-13
-16
-18
-19
-20
-20
-20
-22
-26
-29
-27
-11
25
87
174
276
374
449
482
464
399
298
180
64
-36
-113
-167
-197
-210
-209
-198
-183
-164
-145
-126
-107
-89
-72
-57
-43
-31
-21
-13
-7
-2
2
7
12
17
22
27
31
36
40
44
48
54
60
68
75
82
88
94
99
105
111
117
123
127
129
127
121
109
93
71
47
19
-9
-38
-65
-90
-111
-127
-138
-144
-145
-144
-139
-132
-122
-111
-99
-87
-76
-66
-57
-49
-40
-31
-24
-18
-15
-15
-16
-18
-19
-18
-16
-13
-9
-4
0
3
6
8
11
14
16
18
19
19
18
18
17
15
13
11
8
6
4
2
1
2
3
6
9
12
14
14
14
12
11
10
10
10
10
10
9
9
8
7
6
7
8
11
15
20
26
32
37
41
43
43
41
38
33
26
19
10
2
-5
-9
-12
-13
-14
-14
-16
-17
-18
-19
-19
-19
-20
-22
-22
-17
3
42
104
186
273
347
390
391
346
266
167
65
-25
-94
-141
-168
-178
-175
-164
-148
-129
-111
-93
-78
-64
-51
-41
-32
-24
-16
-9
-2
5
12
18
22
25
26
26
25
25
27
31
37
45
54
63
71
78
84
91
97
105
113
121
125
126
124
119
111
100
86
70
49
25
-3
-31
-59
-84
-107
-124
-138
-146
-150
-149
-145
-139
-130
-120
-108
-97
-87
-77
-68
-58
-49
-40
-33
-28
-23
-20
-16
-12
-9
-7
-6
-5
-5
-4
-3
-2
0
3
6
8
10
10
9
8
7
7
7
7
8
9
9
9
9
10
10
10
10
9
8
7
6
6
7
9
10
10
8
5
3
1
2
3
4
5
5
5
6
9
13
16
17
16
13
9
5
4
6
11
17
23
30
35
40
43
44
42
37
29
21
11
3
-4
-10
-13
-14
-13
-10
-9
-8
-8
-10
-13
-17
-22
-29
-35
-36
-25
6
62
144
244
346
429
474
469
414
320
203
85
-21
-104
-163
-199
-216
-219
-210
-195
-175
-153
-132
-112
-95
-80
-67
-55
-45
-37
-30
-24
-20
-16
-11
-5
1
8
16
24
32
37
41
45
47
51
55
61
68
77
86
95
105
112
119
122
123
120
115
108
97
83
65
43
16
-14
-46
-76
-103
-125
-141
-150
-152
-149
-141
-131
-121
-111
-103
-95
-87
-80
-73
-68
-62
-57
-50
-43
-36
-30
-26
-23
-21
-19
-17
-14
-11
-8
-5
-3
0
2
3
5
8
10
13
14
13
10
6
0
-6
-9
-11
-10
-6
-1
3
6
6
5
2
-1
-4
-5
-6
-5
-3
1
5
8
11
12
12
11
10
9
10
12
15
18
20
20
21
21
22
24
24
22
18
11
3
-5
-11


-16
-18
-20
-21
-22
-23
-24
-24
-23
-22
-21
-22
-24
-26
-23
-9
23
77
149
230
303
349
357
323
254
165
72
-11
-77
-122
-147
-158
-157
-148
-135
-119
-102
-85
-70
-57
-47
-40
-36
-32
-28
-23
-18
-11
-4
3
8
14
19
23
26
29
31
33
34
36
39
44
51
62
74
86
98
108
115
120
121
120
117
111
103
92
77
57
33
5
-24
-53
-80
-102
-120
-133
-141
-146
-147
-144
-139
-131
-122
-113
-102
-93
-83
-74
-66
-59
-53
-48
-42
-38
-34
-31
-29
-27
-27
-26
-24
-20
-17
-14
-13
-12
-12
-10
-7
-2
3
7
9
10
10
10
9
8
7
5
4
4
4
4
4
4
4
5
4
4
2
-1
-4
-7
-11
-13
-13
-11
-8
-3
2
6
7
7
6
6
7
9
12
16
18
19
21
22
23
23
24
23
22
19
14
8
1
-6
-11
-16
-19
-19
-18
-15
-12
-10
-9
-9
-12
-17
-24
-32
-38
-38
-24
10
69
148
237
318
374
389
362
297
208
111
19
-59
-118
-157
-180
-187
-183
-172
-156
-138
-120
-102
-85
-71
-61
-52
-43
-35
-26
-17
-8
-1
4
7
8
9
9
10
13
18
24
30
36
40
44
48
52
57
64
72
79
84
88
90
92
93
92
89
82
70
54
35
13
-9
-32
-54
-73
-90
-104
-113
-118
-120
-119
-116
-112
-108
-104
-99
-94
-87
-79
-71
-64
-57
-50
-44
-38
-33
-28
-25
-23
-21
-19
-17
-15
-14
-14
-12
-10
-6
-2
1
3
4
4
5
5
5
5
3
2
-1
-4
-7
-9
-10
-10
-9
-7
-3
0
4
6
9
10
10
9
7
5
3
3
3
4
4
3
1
-2
-6
-8
-11
-12
-12
-10
-7
-4
0
4
8
11
15
19
23
27
31
31
30
25
17
8
-2
-10
-15
-18
-18
-16
-13
-11
-11
-12
-15
-18
-21
-25
-29
-33
-37
-38
-30
-5
42
112
198
286
358
396
391
343
261
162
63
-25
-94
-142
-173
-188
-190
-183
-169
-151
-131
-112
-95
-80
-67
-55
-44
-35
-28
-24
-22
-20
-19
-16
-11
-4
5
15
24
32
36
39
41
44
49
54
62
69
77
82
87
91
94
96
99
100
100
98
94
85
73
56
34
9
-18
-46
-73
-96
-115
-129
-137
-140
-139
-134
-127
-119
-109
-100
-93
-87
-81
-76
-71
-65
-58
-51
-44
-37
-31
-25
-21
-18
-17
-16
-14
-13
-11
-10
-8
-8
-8
-8
-8
-5
-1
3
7
10
10
9
7
4
2
1
1
0
-1
-2
-2
-3
-4
-5
-5
-4
-3
-1
1
3
4
4
3
2
1
2
3
3
1
-1
-4
-6
-7
-7
-5
-3
-1
1
3
5
7
10
13
17
21
26
29
32
34
33
29
22
14
6
-1
-6
-10
-14
-19
-24
-27
-30
-30
-30
-28
-27
-27
-29
-33
-37
-36
-24
7
61
139
231
323
396
432
422
366
277
170
62
-32
-106
-157
-187
-200
-201
-192
-178
-162
-145
-128
-113
-98
-84
-71
-58
-46
-36
-26
-19
-13
-9
-5
-2
2
6
10
14
19
25
30
35
40
45
49
56
64
74
84
93
100
105
108
110
111
110
108
103
94
79
59
34
6
-24
-52
-79
-101
-118
-130
-138
-141
-141
-138
-132
-124
-115
-106
-97
-90
-83
-77
-71
-66
-60
-55
-49
-42
-36
-30
-25
-21
-17
-14
-11
-9
-8
-6
-4
-3
-1
0
1
1
-1
-3
-5
-6
-6
-4
-3
-2
-1
-1
-1
-1
-1
0
1
2
2
2
1
0
-1
-3
-4
-5
-5
-5
-4
-2
0
1
3
3
4
4
4
4
3
2
2
2
2
1
1
0
-1
-2
-3
-3
-3
-3
-2
-2
-1
-2
-2
-3
-3
-2
-2
-1
1
4
8
13
17
22
27
31
33
32
29
23
16
8
0
-8
-14
-19
-22
-22
-22
-22
-22
-22
-21
-21
-22
-26
-32
-40
-44
-38
-13
37
113
208
306
390
438
440
395
311
206
96
-3
-84
-144
-182
-203
-211
-207
-196
-180
-161
-141
-122
-104
-89
-76
-65
-54
-45
-37
-28
-20
-13
-6
-1
4
8
11
15
18
21
25
30
35
42
49
55
62
69
75
82
88
93
98
102
105
107
108
106
100
89
73
51
26
-1
-29
-56
-82
-104
-124
-139
-149
-153
-152
-146
-138
-129
-119
-109
-99
-88
-76
-63
-52
-43
-38
-37
-38
-41
-42
-42
-40
-37
-32
-26
-19
-13
-8
-5
-4
-5
-7
-8
-8
-8
-7
-6
-4
-3
-3
-2
-2
-2
-2
-2
-4
-6
-8
-10
-11
-12
-12
-12
-11
-9
-9
-8
-6
-3
0
4
7
8
7
5
2
-2
-5
-8
-9
-9
-7
-4
-1
2
3
3
2
-1
-3
-5
-7
-8
-8
-7
-6
-4
-1
3
5
7
9
12
17
24
32
39
43
45
43
40
34
26
16
5
-5
-13
-20
-24
-26
-28
-29
-29
-29
-27
-26
-26
-27
-29
-32
-32
-26
-9
27
84
162
252
338
402
425
402
335
238
128
22
-67
-133
-176
-198
-203
-195
-178
-158
-138
-120
-105
-92
-80
-69
-59
-50
-42
-36
-31
-26
-22
-20
-17
-13
-8
0
11
22
32
39
44
48
50
53
57
62
67
73
79
86
92
97
103
108
112
114
114
110
102
88
69
44
14
-18
-52
-83
-109
-130
-145
-154
-156
-154
-148
-141
-132
-123
-113
-103
-93
-84
-78
-73
-70
-67
-64
-60
-54
-47
-40
-33
-27
-23
-19
-14
-10
-6
-3
-2
-1
-1
-1
0
1
1
2
2
3
4
4
3
1
-2
-4
-6
-7
-7
-6
-5
-3
-2
-1
1
2
2
3
2
1
-1
-3
-6
-8
-9
-10
-9
-9
-7
-6
-5
-3
-1
1
3
5
8
10
12
13
16
18
22
26
31
33
33
31
25
17
8
-2
-10
-16
-21
-23
-24
-24
-24
-23
-23
-23
-24
-26
-28
-31
-33
-33
-27
-9
28
86
163
247
322
370
377
340
268
174
78
-9
-77
-124
-152
-165
-166
-159
-147
-132
-117
-104
-91
-81
-71
-61
-51
-41
-32
-24
-18
-13
-9
-5
0
6
12
19
25
30
34
38
42
47
52
59
66
71
77
81
86
91
96
101
106
109
110
110
106
98
85
68
46
20
-8
-37
-64
-90
-111
-127
-139
-146
-149
-149
-147
-142
-136
-128
-119
-109
-99
-88
-77
-66
-56
-47
-40
-35
-31
-28
-25
-21
-19
-16
-14
-13
-12
-12
-11
-10
-9
-7
-4
-2
1
2
3
4
4
4
4
4
6
8
9
9
7
5
3
1
-1
-3
-5
-5
-5
-3
-1
0
0
-1
-3
-4
-6
-7
-6
-6
-5
-6
-8
-9
-10
-9
-5
-1
4
8
11
12
12
11
11
12
14
17
21
26
29
31
31
30
27
22
16
8
-1
-11
-19
-26
-30
-31
-30
-26
-22
-17
-14
-14
-18
-26
-35
-42
-42
-28
9
71
157
256
352
423
453
433
368
271
160
51
-42
-115
-167
-199
-214
-215
-207
-193
-174
-154
-132
-110
-89
-70
-56
-46
-41
-38
-35
-31
-25
-19
-12
-5
1
8
15
23
31
38
45
50
54
59
64
69
73
76
79
82
85
90
96
102
108
113
115
113
107
94
74
47
14
-21
-56
-87
-114
-134
-147
-153
-154
-150
-143
-133
-122
-110
-99
-90
-82
-76
-71
-67
-63
-59
-54
-48
-41
-35
-28
-21
-16
-11
-8
-6
-4
-2
-1
-1
-3
-5
-8
-10
-10
-9
-7
-5
-2
1
3
6
9
10
11
12
12
11
10
6
1
-5
-10
-14
-16
-16
-15
-12
-7
-2
4
9
11
12
12
13
14
16
19
21
24
25
26
26
23
19
13
7
1
-6
-14
-22
-29
-34
-35
-33
-30
-27
-25
-25
-26
-29
-33
-35
-32
-18
13
67
140
226
307
366
386
361
294
201
99
5
-71
-125
-157
-172
-173
-165
-152
-136
-120
-106
-93
-82
-71
-61
-53
-46
-40
-35
-30
-24
-16
-7
3
13
22
28
33
35
37
38
38
40
42
46
50
55
61
68
75
83
92
101
109
115
117
117
113
107
96
80
59
33
4
-27
-57
-86
-111
-131
-146
-154
-158
-156
-151
-142
-132
-121
-110
-99
-88
-78
-69
-61
-54
-47
-41
-36
-33
-30
-27
-24
-21
-18
-15
-12
-10
-7
-4
-2
-1
0
1
1
1
1
2
3
5
7
8
8
8
8
7
5
1
-3
-6
-8
-8
-7
-5
-2
0
2
4
5
5
5
4
2
-1
-3
-5
-5
-5
-3
-1
1
2
3
4
5
8
12
18
23
28
32
34
33
31
25
18
8
-2
-10
-15
-18
-20
-22
-25
-27
-30
-32
-33
-34
-35
-38
-42
-44
-38
-17
26
96
188
292
387
454
476
447
373
268
151
40
-55
-128
-178
-206
-216
-213
-201
-184
-166
-148
-131
-114
-99
-83
-68
-54
-41
-30
-21
-13
-8
-2
3
7
12
16
21
26
32
38
44
50
56
63
68
73
78
82
86
91
96
100
104
108
110
110
108
101
89
71
48
21
-8
-37
-66
-93
-114
-130
-139
-143
-142
-139
-136
-132
-128
-121
-112
-102
-90
-78
-65
-54
-45
-38
-34
-32
-31
-31
-30
-27
-25
-23
-21
-20
-20
-19
-17
-15
-12
-9
-7
-4
-2
0
1
2
2
3
3
4
3
2
0
-3
-6
-10
-12
-14
-14
-14
-13
-12
-11
-10
-9
-8
-7
-5
-2
3
8
13
17
20
21
22
22
21
20
16
10
1
-8
-18
-26
-33
-37
-40
-42
-42
-41
-39
-38
-36
-36
-38
-41
-45
-49
-49
-38
-10
41
115
201
284
346
369
347
284
193
91
-5
-84
-142
-179
-198
-203
-198
-186
-172
-156
-141
-127
-114
-101
-89
-78
-68
-59
-52
-46
-42
-38
-35
-31
-27
-22
-18
-14
-10
-6
-3
2
7
13
19
26
33
39
45
50
54
58
63
67
71
73
73
70
61
46
26
0
-29
-59
-89
-117
-142
-162
-176
-186
-192
-195
-194
-191
-186
-178
-167
-155
-142
-130
-119
-110
-103
-98
-95
-93
-90
-87
-83
-78
-73
-69
-66
-65
-63
-62
-60
-58
-56
-54
-53
-52
-51
-51
-51
-50
-48
-47
-46
-46
-46
-48
-50
-51
-51
-50
-48
-46
-45
-43
-42
-42
-42
-41
-41
-42
-43
-45
-47
-48
-49
-50
-50
-49
-47
-43
-39
-36
-33
-31
-30
-29
-28
-26
-25
-23
-21
-20
-20
-21
-25
-30
-36
-43
-49
-55
-60
-63
-64
-64
-63
-61
-59
-57
-57
-58
-61
-62
-60
-46
-14
38
109
189
262
311
323
292
226
138
43
-43
-113
-162
-191
-205
-205
-198
-185
-170
-154
-137
-121
-105
-90
-77
-66
-58
-53
-50
-47
-45
-41
-37
-32
-26
-21
-15
-10
-6
-1
4
9
13
17
21
24
29
34
40
47
55
62
69
76
81
85
86
83
76
64
48
26
1
-27
-56
-85
-111
-132
-149
-160
-166
-169
-169
-165
-157
-148
-136
-124
-112
-101
-92
-83
-76
-70
-66
-62
-60
-57
-54
-50
-46
-41
-38
-37
-36
-37
-37
-36
-33
-30
-25
-20
-16
-14
-13
-13
-14
-13
-11
-8
-5
-3
-2
-3
-5
-9
-13
-17
-19
-20
-19
-16
-14
-12
-11
-9
-7
-5
-4
-3
-2
-2
-1
1
4
8
11
14
15
14
13
11
8
4
-2
-8
-15
-22
-27
-32
-35
-37
-38
-37
-36
-34
-34
-35
-37
-39
-40
-36
-21
12
67
142
228
309
368
391
369
307
217
116
19
-63
-124
-164
-183
-188
-183
-172
-159
-144
-129
-115
-101
-88
-77
-65
-55
-45
-35
-26
-18
-11
-6
-3
-2
-1
-1
1
5
11
19
27
35
43
51
58
65
72
80
85
90
94
97
100
102
104
104
100
92
81
65
44
20
-7
-34
-62
-87
-108
-126
-138
-145
-147
-143
-136
-126
-116
-107
-99
-91
-82
-73
-64
-55
-48
-42
-38
-35
-32
-29
-25
-20
-15
-9
-5
-1
1
1
2
3
5
7
9
8
6
3
0
0
1
4
6
7
7
6
6
7
8
9
9
9
8
7
5
5
5
6
8
9
10
10
10
9
8
7
7
8
10
11
12
12
12
11
11
12
13
14
15
16
15
15
16
19
23
27
32
35
36
35
31
26
19
11
3
-4
-9
-12
-13
-12
-10
-7
-6
-7
-8
-11
-15
-19
-25
-30
-28
-15
19
78
161
259
356
432
471
462
406
314
202
88
-13
-94
-151
-187
-204
-209
-204
-193
-175
-155
-132
-111
-92
-76
-64
-54
-45
-38
-31
-24
-17
-9
0
8
15
22
27
31
34
36
39
42
46
51
57
65
73
81
90
99
106
111
114
116
116
116
114
109
100
86
66
42
14
-15
-44
-70
-93
-111
-124
-131
-133
-131
-125
-119
-113
-108
-104
-99
-92
-83
-74
-64
-55
-48
-41
-36
-30
-23
-16
-9
-4
-2
-1
-3
-5
-7
-8
-8
-8
-8
-8
-6
-4
-2
2
5
7
9
9
9
8
6
4
1
-1
-1
-1
-1
-1
-4
-6
-9
-9
-8
-5
-1
3
5
7
8
8
7
4
0
-5
-10
-13
-15
-14
-11
-8
-5
-2
0
2
3
3
3
2
1
-1
-1
0
0
-1
-2
-2
-2
0
3
7
11
16
21
26
31
33
32
29
23
16
8
-1
-8
-14
-19
-21
-23
-23
-22
-22
-21
-21
-21
-23
-27
-32
-37
-37
-28
-2
48
123
219
320
406
458
463
418
332
223
107
0
-87
-150
-191
-211
-217
-212
-199
-182
-163
-143
-124
-106
-89
-73
-60
-48
-39
-31
-24
-18
-12
-7
-2
4
10
15
20
25
31
37
43
50
56
63


70
76
83
89
95
102
108
113
116
117
116
114
109
102
91
77
57
34
7
-21
-49
-73
-94
-111
-125
-134
-140
-142
-139
-132
-122
-110
-97
-85
-74
-64
-55
-46
-39
-32
-27
-23
-19
-16
-13
-10
-7
-5
-3
0
2
3
3
2
2
3
5
8
11
14
15
15
13
11
10
10
12
15
19
23
26
27
26
24
21
17
14
12
12
12
12
11
10
10
10
10
11
13
13
14
13
13
12
13
14
15
16
16
15
13
12
12
12
13
16
18
21
24
27
28
29
28
27
27
28
31
35
39
45
49
52
52
50
46
39
31
23
16
10
4
-1
-5
-8
-9
-8
-5
-3
-1
0
-2
-6
-12
-15
-11
7
47
110
192
280
357
404
409
369
293
196
95
4
-67
-116
-145
-158
-158
-150
-135
-117
-98
-79
-61
-44
-30
-19
-11
-5
-2
1
3
5
10
16
23
31
37
43
48
50
52
55
58
63
68
74
81
88
96
104
112
119
124
127
130
132
133
133
129
121
108
90
67
42
14
-13
-39
-63
-84
-101
-114
-123
-127
-127
-123
-115
-106
-96
-85
-76
-66
-56
-47
-39
-31
-24
-18
-12
-6
-1
3
5
6
6
5
5
6
8
11
15
18
21
24
26
27
27
28
29
30
32
34
35
35
35
33
32
30
27
26
24
23
22
22
22
22
21
21
20
20
20
21
23
26
29
33
37
37
35
31
24
19
16
15
16
18
19
20
19
17
15
15
15
17
19
21
22
23
23
23
23
24
25
27
29
31
31
30
29
28
28
30
33
37
41
45
49
51
53
52
49
43
37
29
21
14
9
7
5
4
3
2
1
0
1
2
3
1
-4
-10
-17
-17
-4
32
94
180
282
380
455
489
473
409
311
195
81
-19
-96
-150
-183
-199
-201
-193
-177
-157
-135
-113
-93
-75
-60
-46
-32
-19
-8
0
5
8
9
10
12
16
20
25
29
33
37
42
48
55
62
68
74
79
85
91
97
104
110
117
124
130
133
133
129
121
108
90
67
40
12
-17
-43
-67
-87
-103
-114
-121
-125
-124
-121
-114
-104
-93
-80
-69
-58
-48
-38
-29
-20
-12
-7
-4
-2
-2
-2
-1
0
3
4
5
5
5
6
8
11
14
17
17
17
16
16
16
18
20
22
23
24
24
24
22
20
19
18
19
20
21
21
21
21
21
21
20
18
16
14
12
12
12
13
14
15
14
13
13
12
13
15
16
18
18
18
19
20
22
23
23
22
19
16
13
12
12
13
14
16
18
19
19
20
21
23
27
34
41
49
56
60
62
61
56
49
38
26
15
5
-2
-6
-9
-11
-12
-11
-10
-7
-5
-3
-3
-5
-9
-14
-16
-9
14
60
132
223
321
405
458
467
428
349
245
133
29
-58
-123
-167
-193
-201
-197
-184
-165
-145
-124
-105
-88
-72
-58
-45
-34
-24
-15
-8
-2
2
5
7
8
11
14
19
27
37
48
58
68
76
82
88
94
100
105
110
113
117
120
124
127
128
128
124
117
106
90
70
46
19
-10
-38
-64
-88
-108
-123
-135
-144
-148
-147
-142
-132
-120
-106
-91
-77
-65
-56
-48
-42
-37
-33
-28
-23
-19
-16
-15
-14
-13
-11
-8
-4
1
5
9
13
16
19
21
23
23
22
20
17
14
12
9
7
6
6
7
8
10
10
10
10
10
9
8
8
8
8
9
11
12
13
14
14
15
16
17
17
15
13
11
9
9
11
14
17
18
18
16
14
13
11
10
9
8
7
5
4
3
3
3
5
8
11
14
17
20
23
26
30
34
40
45
49
50
47
42
35
26
18
9
-1
-10
-19
-26
-30
-31
-28
-24
-18
-12
-9
-8
-10
-14
-20
-22
-14
9
54
123
207
295
366
403
393
339
252
149
49
-35
-96
-136
-157
-166
-165
-158
-147
-133
-119
-105
-91
-77
-64
-51
-39
-29
-20
-12
-5
2
10
18
26
34
39
42
43
44
45
48
51
56
61
66
70
74
78
84
91
98
106
112
115
117
118
118
116
112
103
87
65
36
4
-29
-61
-91
-116
-135
-147
-154
-155
-153
-148
-139
-130
-120
-109
-100
-91
-83
-75
-66
-57
-49
-42
-35
-30
-25
-22
-19
-17
-15
-14
-13
-12
-11
-10
-7
-4
1
5
8
10
11
11
11
12
13
13
12
10
9
8
7
6
5
4
3
3
3
3
2
1
-1
-2
-3
-4
-4
-3
-1
0
1
0
-2
-4
-5
-5
-4
-3
-2
0
1
2
2
2
2
3
4
5
7
8
9
11
13
17
22
27
31
33
32
29
24
17
9
1
-7
-14
-19
-24
-27
-30
-31
-32
-31
-30
-28
-27
-27
-29
-31
-30
-18
11
64
141
234
327
400
434
421
360
266
156
48
-46
-117
-166
-193
-204
-202
-190
-173
-153
-133
-114
-97
-82
-70
-60
-51
-43
-36
-30
-25
-20
-14
-9
-3
3
9
16
23
31
39
45
50
53
56
58
60
64
69
77
85
94
101
107
112
114
115
114
110
101
87
67
43
15
-15
-45
-72
-97
-119
-136
-148
-155
-157
-155
-149
-141
-132
-123
-112
-102
-92
-83
-75
-68
-62
-56
-50
-45
-40
-36
-32
-28
-24
-20
-16
-12
-9
-8
-7
-6
-6
-4
-3
-1
2
5
7
8
8
7
5
3
1
-1
-2
-3
-3
-3
-1
1
3
5
5
4
2
0
-2
-4
-5
-6
-6
-6
-7
-6
-4
-1
2
5
6
6
4
2
1
1
3
6
11
16
22
28
34
38
39
36
28
16
3
-9
-19
-26
-30
-32
-32
-32
-30
-28
-25
-23
-22
-24
-27
-33
-36
-31
-10
33
102
191
287
370
421
425
380
296
190
80
-18
-96
-152
-185
-201
-203
-194
-180
-161
-143
-126
-110
-95
-82
-69
-57
-46
-37
-29
-24
-19
-14
-9
-5
0
4
9
13
18
22
28
34
40
46
52
57
63
70
79
88
98
106
112
115
117
116
113
108
100
87
70
48
22
-7
-37
-66
-93
-115
-132
-145
-153
-158
-158
-155
-149
-140
-130
-118
-106
-95
-85
-77
-68
-60
-52
-45
-40
-37
-36
-35
-34
-32
-30
-27
-24
-22
-18
-14
-10
-6
-1
2
4
6
6
6
6
5
4
2
0
-2
-2
-2
-1
0
1
1
1
-1
-3
-5
-6
-7
-6
-4
-2
3
7
10
13
13
12
11
10
11
14
17
20
23
24
24
21
16
10
4
-2
-7
-11
-17
-22
-27
-31
-33
-34
-33
-32
-30
-29
-29
-29
-27
-18
5
47
112
194
279
351
391
387
337
252
150
48
-40
-107
-151
-175
-183
-181
-170
-155
-138
-120
-103
-88
-75
-64
-55
-47
-39
-33
-27
-22
-17
-12
-7
-2
5
12
21
28
35
39
42
44
47
50
54
58
62
66
72
79
88
98
108
115
120
122
120
114
102
86
65
41
13
-17
-48
-79
-107
-131
-149
-161
-167
-168
-164
-156
-147
-137
-126
-116
-106
-96
-85
-75
-66
-58
-52
-46
-41
-35
-30
-24
-19
-15
-11
-9
-7
-8
-9
-11
-13
-15
-16
-17
-17
-15
-12
-9
-7
-6
-5
-5
-4
-2
1
4
7
9
10
9
6
2
-5
-11
-16
-19
-20
-19
-17
-14
-11
-9
-7
-6
-5
-4
-2
2
8
15
22
27
31
32
33
32
30
25
19
10
1
-9
-16
-21
-25
-28
-31
-33
-34
-35
-34
-33
-32
-31
-31
-33
-36
-37
-29
-7
38
107
197
293
379
434
443
404
322
216
103
-1
-84
-146
-185
-206
-213
-209
-198
-184
-168
-151
-133
-114
-97
-82
-68
-57
-47
-38
-30
-23
-16
-11
-7
-4
0
5
10
16
21
26
32
38
45
53
62
70
78
86
93
100
105
109
112
114
113
109
102
91
76
57
34
8
-20
-48
-75
-98
-118
-134
-144
-150
-151
-150
-146
-140
-132
-122
-112
-101
-92
-83
-73
-65
-56
-47
-40
-33
-28
-25
-23
-22
-22
-22
-21
-20
-20
-18
-16
-13
-10
-7
-5
-4
-4
-3
-3
-3
-3
-4
-4
-4
-3
-1
0
0
-1
-3
-3
-4
-4
-4
-4
-5
-5
-5
-4
-2
-1
1
1
0
-2
-2
-1
3
8
16
22
28
31
33
32
28
21
11
1
-10
-19
-26
-31
-34
-36
-36
-35
-33
-31
-27
-25
-25
-28
-34
-40
-43
-38
-17
26
93
179
271
350
398
400
355
271
167
61
-33
-107
-157
-187
-200
-200
-190
-174
-156
-139
-123
-109
-97
-85
-75
-65
-56
-48
-41
-35
-29
-24
-19
-14
-7
1
10
19
26
31
33
34
33
34
36
40
46
54
62
70
78
86
93
98
103
105
104
98
88
73
53
29
2
-27
-56
-85
-110
-132
-148
-159
-163
-163
-158
-151
-142
-132
-122
-112
-103
-96
-90
-84
-80
-75
-71
-67
-63
-58
-53
-48
-43
-39
-36
-33
-28
-23
-17
-12
-7
-6
-6
-8
-11
-13
-15
-15
-15
-14
-15
-16
-17
-17
-17
-14
-9
-4
-1
1
-2
-6
-11
-16
-18
-20
-20
-19
-19
-19
-19
-19
-18
-17
-15
-14
-14
-15
-15
-14
-13
-13
-13
-13
-10
-6
1
8
14
18
21
23
23
22
20
14
7
-2
-12
-22
-31
-37
-41
-42
-40
-37
-32
-27
-24
-22
-23
-28
-36
-44
-47
-38
-10
44
123
218
315
393
434
428
374
285
177
67
-32
-109
-165
-199
-215
-219
-212
-200
-183
-165
-146
-127
-109
-93
-79
-68
-58
-50
-42
-35
-26
-19
-12
-6
-1
3
8
13
19
23
27
32
36
41
47
53
60
66
73
79
84
88
91
93
94
95
94
90
81
67
48
25
0
-27
-53
-80
-105
-129
-149
-164
-173
-177
-175
-169
-160
-150
-138
-125
-111
-97
-83
-70
-60
-53
-49
-47
-47
-46
-46
-44
-42
-40
-37
-34
-30
-25
-20
-16
-12
-9
-7
-6
-6
-8
-11
-15
-18
-20
-20
-20
-20
-19
-19
-18
-16
-15
-13
-11
-9
-8
-7
-7
-7
-8
-8
-9
-9
-10
-11
-11
-12
-11
-10
-8
-7
-6
-7
-9
-11
-12
-12
-10
-8
-7
-5
-4
-4
-2
1
4
8
13
18
24
29
32
32
28
21
11
1
-10
-18
-23
-26
-27
-26
-24
-24
-24
-24
-25
-24
-24
-24
-26
-31
-33
-27
-5
43
117
212
313
400
452
456
410
324
213
98
-6
-90
-150
-188
-208
-212
-206
-194
-177
-159
-140
-121
-102
-85
-71
-59
-50
-41
-33
-25
-18
-10
-4
3
9
16
22
26
30
34
37
42
47
54
61
70
78
86
93
98
102
106
110
114
117
119
118
113
104
90
71
47
19
-11
-41
-71
-99
-122
-141
-154
-160
-161
-158
-151
-143
-132
-120
-107
-95
-84
-74
-65
-57
-51
-45
-39
-33
-29
-25
-23
-22
-21
-20
-18
-15
-12
-9
-7
-6
-6
-5
-4
-2
-1
1
3
4
4
5
4
3
2
1
2
5
7
8
8
6
5
3
3
4
6
7
7
6
5
4
3
3
4
6
8
9
11
11
11
10
8
6
5
4
4
5
7
10
12
14
14
14
13
12
11
11
10
10
11
13
16
21
27
33
38
41
42
40
35
28
19
10
1
-6
-11
-15
-17
-17
-17
-15
-12
-8
-4
-2
-2
-5
-12
-20
-26
-24
-7
32
96
180
271
350
399
401
356
272
168
62
-31
-99
-143
-165
-170
-165
-153
-139
-123
-107
-92
-78
-65
-55
-46
-38
-32
-24
-17
-10
-4
2
8
14
20
27
33
39
45
49
52
55
58
61
64
68
72
76
82
89
97
106
115
123
128
130
128
124
115
103
86
64
38
8
-23
-54
-83
-108
-128
-143
-152
-155
-155
-151
-145
-137
-128
-117
-104
-89
-75
-63
-53
-47
-43
-40
-38
-35
-33
-32
-30
-27
-24
-20
-16
-11
-9
-7
-6
-6
-5
-3
-1
2
6
9
12
14
15
15
14
13
12
11
10
10
10
10
8
5
2
0
-1
0
2
4
6
8
9
9
8
6
4
2
0
-1
-1
-1
1
3
5
7
9
11
11
10
9
7
5
3
2
3
5
7
10
13
16
20
23
27
31
35
38
40
41
39
35
28
18
8
-2
-9
-15
-18
-19
-19
-18
-17
-16
-16
-15
-16
-16
-19
-22
-23
-14
11
61
136
228
324
403
447
445
394
307
199
90
-8
-86
-141
-176
-195
-199
-194
-182
-165
-146
-127
-107
-88
-71
-56
-45
-35
-28
-22
-17
-12
-8
-2
4
12
20
26
32
36
39
42
45
49
54
61
67
74
80
86
92
99
107
114
121
125
127
127
122
111
95
73
48
19
-11
-40
-68
-93
-113
-128
-138
-143
-144
-142
-138
-132
-124
-116
-107
-98
-90
-81
-72
-63
-55
-48
-41
-35
-31
-27
-23
-21
-18
-15
-13
-10
-8
-6
-4
-2
1
3
5
6
7
8
9
9
8
6
4
2
0
-1
0
2
3
4
4
4
3
3
4
6
8
11
12
14
15
15
13
11
7
3
-1
-2
-3
-2
-2
-3
-4
-5
-6
-5
-2
1
5
8
9
9
8
8
8
9
12
16
21
28
35
43
48
51
49
43
34
23
11
-1
-11
-18
-23
-25
-25
-24
-22
-20
-17
-14
-12
-11
-13
-17
-21
-20
-10
18
68
142
232
322
393
427
414
355
263
156
52
-37
-105
-151
-176
-186
-184
-174
-160
-143
-127
-112
-98
-85
-72
-60
-47
-34
-22
-11
-2
4
10


15
19
21
23
24
25
27
31
36
41
46
52
57
63
70
78
88
98
107
115
121
125
127
127
125
121
113
99
80
55
25
-9
-43
-77
-106
-130
-147
-158
-163
-162
-157
-149
-139
-129
-118
-107
-97
-88
-80
-73
-66
-59
-51
-43
-36
-30
-26
-24
-24
-23
-22
-20
-17
-15
-13
-11
-8
-5
-2
0
2
4
5
6
7
7
8
8
8
6
5
2
1
0
0
1
0
0
0
1
1
2
2
1
-1
-2
-4
-5
-5
-5
-4
-4
-4
-4
-4
-3
0
4
8
12
16
19
22
24
25
27
28
30
32
33
33
31
26
20
12
3
-6
-13
-18
-21
-22
-24
-25
-26
-26
-26
-26
-25
-25
-26
-28
-26
-13
17
71
149
242
335
406
439
424
363
269
160
54
-38
-108
-156
-183
-194
-192
-182
-166
-148
-129
-112
-97
-83
-70
-58
-48
-40
-33
-28
-24
-20
-17
-12
-6
2
11
21
30
37
44
49
54
58
62
65
69
72
77
81
86
91
96
101
106
109
112
112
109
101
87
67
42
12
-20
-51
-79
-104
-125
-141
-151
-156
-155
-151
-145
-137
-129
-120
-109
-96
-84
-72
-62
-53
-46
-41
-38
-35
-34
-32
-31
-28
-26
-23
-20
-17
-12
-6
-1
3
6
8
8
8
6
4
2
0
-1
-2
-3
-4
-4
-2
0
2
3
3
1
-1
-1
-1
0
1
1
0
0
0
0
1
1
1
2
2
2
1
0
-1
-2
-3
-4
-5
-6
-6
-5
-2
3
9
14
19
22
24
26
29
32
34
34
31
24
15
5
-4
-11
-16
-19
-21
-21
-20
-19
-19
-19
-20
-22
-26
-32
-39
-44
-42
-28
7
66
149
247
343
418
452
438
378
284
174
66
-30
-105
-158
-193
-211
-215
-209
-196
-179
-159
-139
-121
-104
-89
-75
-61
-47
-35
-24
-14
-8
-3
1
3
5
8
12
16
21
27
33
39
46
52
58
66
74
83
92
99
106
111
116
119
120
120
116
108
97
81
61
37
11
-18
-47
-77
-104
-127
-144
-154
-158
-159
-155
-150
-142
-132
-122
-111
-100
-90
-80
-71
-64
-57
-52
-47
-42
-38
-35
-32
-29
-24
-19
-13
-8
-4
-1
1
2
2
1
1
-1
-1
-2
-3
-5
-6
-7
-7
-6
-4
-1
3
6
8
9
8
6
3
0
-4
-7
-10
-10
-10
-9
-8
-7
-6
-3
2
6
11
15
19
21
22
22
22
23
25
28
31
32
32
29
24
18
10
2
-6
-13
-18
-20
-21
-20
-21
-23
-27
-31
-33
-34
-34
-33
-33
-32
-28
-13
19
73
149
237
320
380
399
371
301
204
98
2
-76
-130
-162
-176
-178
-171
-158
-143
-126
-110
-96
-83
-73
-64
-55
-46
-37
-28
-19
-12
-5
2
8
13
18
22
25
27
31
34
39
43
48
54
60
66
73
81
90
99
108
115
119
120
118
114
108
98
84
65
42
16
-11
-40
-68
-93
-115
-132
-143
-150
-153
-153
-151
-147
-141
-134
-125
-116
-108
-99
-92
-83
-74
-65
-56
-47
-38
-30
-25
-22
-22
-22
-22
-21
-19
-16
-11
-7
-3
1
4
6
5
3
-1
-4
-5
-5
-4
-1
3
6
8
10
11
11
11
9
7
4
1
-2
-4
-6
-8
-10
-12
-14
-16
-15
-13
-9
-3
3
9
12
14
